SpectraSuite Data File
++++++++++++++++++++++++++++++++++++
Date: Mon Jan 12 10:55:24 EST 2009
User: Lex
Dark Spectrum Present: Yes
Reference Spectrum Present: Yes
Number of Sampled Component Spectra: 1
Spectrometers: USB4E03001
Integration Time (usec): 100000 (USB4E03001)
Spectra Averaged: 5 (USB4E03001)
Boxcar Smoothing: 5 (USB4E03001)
Correct for Electrical Dark: No (USB4E03001)
Strobe/Lamp Enabled: Yes (USB4E03001)
Correct for Detector Non-linearity: No (USB4E03001)
Correct for Stray Light: No (USB4E03001)
Number of Pixels in Processed Spectrum: 3648
>>>>>Begin Processed Spectral Data<<<<<
177.57	-33.333
177.79	-33.333
178.01	-33.333
178.23	-10.000
178.45	72.881
178.66	109.211
178.88	89.055
179.10	92.937
179.32	95.050
179.54	98.454
179.76	85.680
179.98	128.375
180.20	149.697
180.42	156.190
180.64	448.913
180.86	800.000
181.08	208.120
181.30	234.555
181.52	285.401
181.74	770.000
181.96	-1847.368
182.18	-624.286
182.40	-578.082
182.62	-2683.333
182.84	-788.333
183.06	3713.333
183.28	864.179
183.50	-636.905
183.72	-811.429
183.94	-922.222
184.16	735.526
184.38	-638.235
184.60	-670.588
184.82	895.349
185.04	9025.000
185.26	617.308
185.48	-1431.250
185.69	-208.000
185.91	-177.419
186.13	315.873
186.35	421.311
186.57	-394.340
186.79	235.606
187.01	574.286
187.23	-676.087
187.45	-225.472
187.67	-245.652
187.89	-366.667
188.11	597.403
188.33	1400.000
188.55	-621.053
188.77	-3244.444
188.99	422.581
189.21	376.000
189.42	220.976
189.64	367.742
189.86	469.474
190.08	300.000
190.30	448.235
190.52	8775.000
190.74	295.213
190.96	703.030
191.18	-992.857
191.40	-170.492
191.62	-65.772
191.84	-61.682
192.06	-41.447
192.27	-78.355
192.49	-50.877
192.71	-364.912
192.93	-117.054
193.15	4.950
193.37	30.811
193.59	20.870
193.81	7.778
194.03	-136.986
194.25	-23.478
194.47	3583.333
194.68	-282.090
194.90	-344.000
195.12	-111.278
195.34	631.579
195.56	387.500
195.78	650.000
196.00	391.000
196.22	192.821
196.44	234.694
196.66	271.875
196.87	271.277
197.09	181.746
197.31	250.435
197.53	-2250.000
197.75	3983.333
197.97	1119.231
198.19	-545.652
198.41	-323.529
198.63	-132.768
198.84	-361.905
199.06	-137.069
199.28	-31.746
199.50	-23.889
199.72	-12.270
199.94	-133.962
200.16	5.597
200.38	7.095
200.59	-30.804
200.81	-30.605
201.03	-101.000
201.25	-132.046
201.47	-520.833
201.69	723.944
201.91	325.287
202.13	218.519
202.34	251.832
202.56	163.880
202.78	137.607
203.00	121.176
203.22	100.660
203.44	88.693
203.66	65.724
203.87	92.216
204.09	75.862
204.31	900.000
204.53	-486.207
204.75	409.524
204.97	349.383
205.19	1506.250
205.40	2690.000
205.62	1125.000
205.84	293.548
206.06	-846.667
206.28	113.669
206.50	289.231
206.71	116.757
206.93	111.111
207.15	125.000
207.37	152.586
207.59	145.513
207.81	155.745
208.02	130.208
208.24	109.399
208.46	117.003
208.68	120.242
208.90	99.000
209.12	142.905
209.33	159.389
209.55	107.012
209.77	118.663
209.99	97.619
210.21	120.561
210.43	173.962
210.64	252.688
210.86	175.836
211.08	413.750
211.30	704.082
211.52	397.222
211.74	258.163
211.95	660.377
212.17	323.256
212.39	290.741
212.61	93.130
212.83	56.701
213.04	100.000
213.26	76.623
213.48	167.200
213.70	147.468
213.92	126.455
214.13	165.403
214.35	125.214
214.57	163.842
214.79	-2563.636
215.01	-367.059
215.22	-1196.875
215.44	444.094
215.66	761.905
215.88	472.414
216.10	1607.895
216.31	-925.397
216.53	-400.000
216.75	-282.840
216.97	-239.910
217.19	-483.636
217.40	-2239.286
217.62	-739.506
217.84	-320.988
218.06	-302.632
218.27	-213.684
218.49	-291.589
218.71	-2217.647
218.93	-1360.000
219.15	-3990.000
219.36	-433.333
219.58	-375.510
219.80	2714.286
220.02	128.226
220.23	83.951
220.45	44.304
220.67	46.305
220.89	113.043
221.11	195.000
221.32	660.000
221.54	-46.552
221.76	1200.000
221.98	383.099
222.19	-622.222
222.41	-473.214
222.63	-103.933
222.85	-378.205
223.06	-902.778
223.28	-890.625
223.50	-226.804
223.72	-875.000
223.93	640.278
224.15	795.522
224.37	-1428.571
224.59	-4053.846
224.80	-1484.615
225.02	-900.000
225.24	-343.590
225.46	-201.010
225.67	-263.584
225.89	10166.667
226.11	932.877
226.33	903.077
226.54	926.923
226.76	413.084
226.98	1185.294
227.20	1169.697
227.41	288.312
227.63	305.970
227.85	196.654
228.06	131.477
228.28	126.817
228.50	93.452
228.72	90.811
228.93	98.718
229.15	106.308
229.37	92.867
229.59	78.788
229.80	86.988
230.02	87.388
230.24	87.726
230.45	110.369
230.67	94.075
230.89	98.017
231.11	113.812
231.32	106.736
231.54	113.239
231.76	90.188
231.97	128.613
232.19	118.980
232.41	99.731
232.63	141.739
232.84	93.939
233.06	116.570
233.28	108.537
233.49	100.306
233.71	85.627
233.93	64.272
234.14	50.368
234.36	43.732
234.58	45.974
234.79	43.333
235.01	44.771
235.23	36.747
235.45	37.786
235.66	38.525
235.88	43.568
236.10	46.215
236.31	48.711
236.53	110.544
236.75	212.745
236.96	369.048
237.18	441.667
237.40	275.472
237.61	-502.000
237.83	-1375.000
238.05	-456.410
238.26	-338.235
238.48	1000.000
238.70	110.169
238.91	124.775
239.13	144.934
239.35	113.402
239.56	243.651
239.78	2836.364
240.00	335.165
240.21	711.111
240.43	182.206
240.65	151.571
240.86	124.209
241.08	123.632
241.30	92.491
241.51	88.162
241.73	95.455
241.95	76.884
242.16	73.095
242.38	63.373
242.60	48.390
242.81	52.223
243.03	50.212
243.25	44.750
243.46	48.427
243.68	55.299
243.90	59.521
244.11	52.474
244.33	61.900
244.55	58.496
244.76	56.900
244.98	56.434
245.19	51.894
245.41	38.953
245.63	40.665
245.84	44.596
246.06	39.023
246.28	25.161
246.49	25.597
246.71	15.145
246.92	13.556
247.14	15.495
247.36	17.094
247.57	20.355
247.79	27.027
248.01	25.446
248.22	20.511
248.44	14.500
248.65	24.039
248.87	23.446
249.09	29.228
249.30	28.269
249.52	26.601
249.74	23.302
249.95	10.932
250.17	15.875
250.38	11.266
250.60	8.774
250.82	10.708
251.03	3.588
251.25	14.044
251.46	14.585
251.68	16.248
251.90	9.496
252.11	15.363
252.33	28.331
252.54	14.407
252.76	24.377
252.98	39.471
253.19	49.519
253.41	53.479
253.62	45.148
253.84	50.743
254.06	58.455
254.27	66.013
254.49	60.138
254.70	58.974
254.92	67.197
255.14	55.778
255.35	36.597
255.57	34.793
255.78	29.412
256.00	23.366
256.21	15.339
256.43	16.893
256.65	15.061
256.86	27.448
257.08	21.473
257.29	15.954
257.51	15.269
257.72	18.364
257.94	13.412
258.16	15.719
258.37	18.887
258.59	18.325
258.80	18.551
259.02	24.973
259.23	14.750
259.45	12.896
259.66	11.410
259.88	13.134
260.10	17.244
260.31	17.909
260.53	17.133
260.74	15.345
260.96	16.155
261.17	16.020
261.39	9.891
261.60	7.525
261.82	9.867
262.04	18.822
262.25	20.923
262.47	15.358
262.68	17.244
262.90	28.019
263.11	34.377
263.33	29.306
263.54	26.179
263.76	41.779
263.97	48.600
264.19	47.910
264.40	45.165
264.62	41.139
264.84	40.754
265.05	43.088
265.27	29.000
265.48	26.125
265.70	15.130
265.91	11.720
266.13	4.856
266.34	7.470
266.56	7.789
266.77	4.486
266.99	-2.311
267.20	-1.549
267.42	-11.722
267.63	-10.981
267.85	-20.725
268.06	-17.257
268.28	-17.200
268.49	-15.266
268.71	-11.731
268.92	-13.340
269.14	-14.815
269.35	-12.636
269.57	0.603
269.78	12.550
270.00	13.749
270.21	15.308
270.43	16.787
270.64	21.084
270.86	15.077
271.07	12.175
271.29	15.629
271.50	20.940
271.72	25.144
271.93	16.468
272.15	10.584
272.36	12.170
272.58	14.294
272.79	11.154
273.01	4.147
273.22	11.709
273.44	5.301
273.65	7.067
273.87	3.191
274.08	-0.332
274.30	3.625
274.51	12.481
274.73	18.768
274.94	27.266
275.16	36.694
275.37	44.026
275.59	43.521
275.80	47.877
276.01	41.336
276.23	48.074
276.44	48.117
276.66	50.420
276.87	44.208
277.09	39.072
277.30	42.725
277.52	44.724
277.73	41.070
277.95	39.954
278.16	40.112
278.38	46.721
278.59	45.047
278.80	45.480
279.02	42.063
279.23	41.929
279.45	41.339
279.66	34.452
279.88	30.760
280.09	38.322
280.31	37.598
280.52	39.859
280.73	35.857
280.95	30.665
281.16	23.516
281.38	23.120
281.59	24.402
281.81	29.111
282.02	22.703
282.24	24.869
282.45	16.975
282.66	17.413
282.88	15.418
283.09	16.586
283.31	22.788
283.52	24.430
283.74	26.129
283.95	21.492
284.16	21.601
284.38	27.645
284.59	27.428
284.81	29.963
285.02	30.960
285.23	37.267
285.45	38.953
285.66	37.978
285.88	36.804
286.09	39.531
286.31	43.095
286.52	36.663
286.73	38.383
286.95	37.702
287.16	36.930
287.38	34.357
287.59	30.440
287.80	29.607
288.02	25.819
288.23	24.093
288.45	27.192
288.66	24.295
288.87	27.108
289.09	23.527
289.30	16.130
289.52	13.497
289.73	15.691
289.94	15.814
290.16	16.896
290.37	22.402
290.58	19.866
290.80	11.961
291.01	11.675
291.23	11.388
291.44	11.343
291.65	13.166
291.87	16.169
292.08	21.692
292.29	18.320
292.51	19.696
292.72	16.658
292.94	19.455
293.15	23.730
293.36	23.702
293.58	24.878
293.79	28.150
294.00	32.938
294.22	29.956
294.43	26.022
294.65	27.097
294.86	28.253
295.07	26.443
295.29	31.308
295.50	22.610
295.71	21.358
295.93	20.674
296.14	21.588
296.35	18.414
296.57	18.707
296.78	15.739
296.99	13.462
297.21	8.991
297.42	10.926
297.63	12.044
297.85	13.058
298.06	17.869
298.28	22.033
298.49	20.819
298.70	22.871
298.92	26.069
299.13	27.960
299.34	33.631
299.56	35.162
299.77	32.801
299.98	31.509
300.20	36.595
300.41	36.420
300.62	33.819
300.84	31.643
301.05	31.811
301.26	26.557
301.47	27.078
301.69	24.117
301.90	20.649
302.11	17.172
302.33	16.739
302.54	9.331
302.75	8.872
302.97	9.921
303.18	12.048
303.39	5.497
303.61	8.230
303.82	3.410
304.03	1.830
304.25	5.134
304.46	8.875
304.67	5.808
304.88	13.363
305.10	14.601
305.31	13.032
305.52	7.238
305.74	13.158
305.95	14.266
306.16	22.643
306.38	24.067
306.59	26.966
306.80	26.776
307.01	22.212
307.23	19.628
307.44	15.302
307.65	16.335
307.87	20.672
308.08	25.226
308.29	25.936
308.50	20.402
308.72	20.212
308.93	11.031
309.14	11.738
309.36	12.293
309.57	15.045
309.78	15.811
309.99	15.435
310.21	14.762
310.42	8.565
310.63	5.469
310.84	9.333
311.06	7.865
311.27	15.601
311.48	19.439
311.70	20.209
311.91	17.761
312.12	20.858
312.33	21.912
312.55	22.544
312.76	26.478
312.97	26.840
313.18	26.395
313.40	31.392
313.61	30.933
313.82	30.563
314.03	30.977
314.25	32.277
314.46	30.503
314.67	28.435
314.88	29.453
315.10	26.402
315.31	28.655
315.52	27.435
315.73	25.180
315.95	21.438
316.16	18.794
316.37	27.408
316.58	26.963
316.80	29.972
317.01	32.024
317.22	28.000
317.43	27.326
317.64	26.427
317.86	30.818
318.07	30.762
318.28	33.317
318.49	37.494
318.71	33.591
318.92	37.689
319.13	30.603
319.34	27.177
319.55	31.912
319.77	29.966
319.98	28.958
320.19	22.305
320.40	19.341
320.62	17.777
320.83	17.955
321.04	18.730
321.25	17.213
321.46	17.583
321.68	21.099
321.89	21.502
322.10	19.614
322.31	15.939
322.52	16.993
322.74	19.031
322.95	20.870
323.16	17.417
323.37	16.303
323.58	16.087
323.80	16.946
324.01	12.106
324.22	12.916
324.43	17.355
324.64	18.742
324.86	19.984
325.07	19.576
325.28	15.642
325.49	15.674
325.70	12.281
325.91	8.503
326.13	14.334
326.34	16.375
326.55	14.855
326.76	14.629
326.97	15.846
327.18	17.683
327.40	17.689
327.61	23.609
327.82	25.677
328.03	24.504
328.24	27.419
328.45	26.158
328.67	23.921
328.88	21.931
329.09	26.413
329.30	32.846
329.51	26.925
329.72	28.776
329.94	25.960
330.15	22.461
330.36	22.850
330.57	23.062
330.78	22.222
330.99	23.275
331.21	23.420
331.42	22.105
331.63	16.580
331.84	18.433
332.05	18.305
332.26	21.400
332.47	25.511
332.69	29.426
332.90	25.623
333.11	25.944
333.32	31.570
333.53	30.279
333.74	27.759
333.95	27.609
334.16	30.133
334.38	29.462
334.59	26.797
334.80	26.517
335.01	26.385
335.22	31.507
335.43	31.949
335.64	26.872
335.85	31.254
336.07	32.665
336.28	30.166
336.49	32.892
336.70	33.457
336.91	29.962
337.12	31.115
337.33	29.724
337.54	28.147
337.76	25.361
337.97	26.879
338.18	24.355
338.39	22.655
338.60	25.720
338.81	23.861
339.02	24.850
339.23	24.613
339.44	24.147
339.65	27.880
339.87	29.058
340.08	28.201
340.29	29.929
340.50	32.243
340.71	34.301
340.92	36.690
341.13	33.935
341.34	33.500
341.55	40.693
341.76	38.023
341.97	35.900
342.19	36.952
342.40	39.951
342.61	36.147
342.82	35.148
343.03	34.014
343.24	28.429
343.45	28.987
343.66	27.345
343.87	19.598
344.08	20.000
344.29	20.478
344.50	16.608
344.71	13.235
344.93	21.375
345.14	21.611
345.35	22.038
345.56	21.935
345.77	28.300
345.98	25.852
346.19	28.567
346.40	29.494
346.61	26.981
346.82	24.037
347.03	28.776
347.24	24.743
347.45	23.435
347.66	17.702
347.87	20.503
348.08	14.901
348.29	19.297
348.50	22.305
348.71	23.778
348.93	28.665
349.14	33.591
349.35	31.076
349.56	29.548
349.77	27.009
349.98	28.683
350.19	29.116
350.40	29.435
350.61	27.891
350.82	28.264
351.03	26.131
351.24	26.638
351.45	28.445
351.66	23.053
351.87	19.877
352.08	21.636
352.29	24.694
352.50	22.562
352.71	21.832
352.92	21.983
353.13	18.268
353.34	19.832
353.55	19.386
353.76	16.922
353.97	20.527
354.18	22.115
354.39	21.981
354.60	19.779
354.81	20.789
355.02	21.826
355.23	22.728
355.44	23.407
355.65	22.388
355.86	21.841
356.07	23.247
356.28	24.766
356.49	28.536
356.70	28.086
356.91	30.093
357.12	31.353
357.33	29.521
357.54	27.003
357.75	27.130
357.96	25.701
358.17	24.697
358.38	22.584
358.59	19.941
358.80	17.527
359.01	18.310
359.22	17.707
359.43	15.532
359.64	16.877
359.85	17.072
360.06	17.319
360.27	19.105
360.48	18.455
360.69	16.464
360.90	18.596
361.11	18.004
361.32	17.111
361.53	15.339
361.74	16.568
361.95	14.336
362.16	17.482
362.37	16.311
362.58	17.906
362.79	18.583
362.99	20.695
363.20	18.537
363.41	18.328
363.62	20.165
363.83	20.849
364.04	21.000
364.25	22.142
364.46	18.943
364.67	19.788
364.88	18.635
365.09	17.442
365.30	16.717
365.51	18.719
365.72	21.118
365.93	18.133
366.14	18.532
366.35	18.624
366.56	16.814
366.76	18.481
366.97	20.417
367.18	18.263
367.39	19.731
367.60	21.085
367.81	19.275
368.02	18.769
368.23	18.491
368.44	19.226
368.65	20.096
368.86	22.561
369.07	22.123
369.28	21.363
369.48	20.664
369.69	17.726
369.90	16.199
370.11	16.466
370.32	14.221
370.53	18.469
370.74	16.212
370.95	17.624
371.16	18.454
371.37	18.598
371.58	17.913
371.78	21.046
371.99	22.551
372.20	24.254
372.41	24.089
372.62	26.195
372.83	23.696
373.04	27.466
373.25	25.363
373.46	25.437
373.67	26.291
373.87	26.271
374.08	23.884
374.29	25.219
374.50	23.287
374.71	23.766
374.92	24.356
375.13	24.774
375.34	22.800
375.55	20.519
375.75	18.095
375.96	18.485
376.17	20.303
376.38	17.202
376.59	15.701
376.80	18.093
377.01	18.938
377.21	14.317
377.42	12.948
377.63	13.555
377.84	14.027
378.05	15.076
378.26	12.326
378.47	9.180
378.68	12.702
378.88	13.317
379.09	11.421
379.30	10.628
379.51	13.015
379.72	13.688
379.93	12.743
380.14	15.430
380.34	14.847
380.55	16.558
380.76	20.865
380.97	18.288
381.18	18.707
381.39	20.169
381.59	19.056
381.80	19.465
382.01	21.212
382.22	22.150
382.43	20.058
382.64	18.320
382.84	19.213
383.05	16.965
383.26	20.259
383.47	19.845
383.68	17.852
383.89	18.788
384.09	18.011
384.30	15.847
384.51	12.877
384.72	13.735
384.93	14.975
385.14	13.353
385.34	13.676
385.55	14.152
385.76	14.587
385.97	15.237
386.18	18.221
386.38	18.645
386.59	20.004
386.80	21.761
387.01	20.846
387.22	21.843
387.42	21.891
387.63	20.911
387.84	19.861
388.05	18.896
388.26	15.999
388.46	13.971
388.67	15.246
388.88	13.586
389.09	11.047
389.30	12.483
389.50	10.921
389.71	11.471
389.92	12.457
390.13	14.178
390.34	13.501
390.54	17.025
390.75	16.395
390.96	16.476
391.17	18.244
391.37	19.503
391.58	18.917
391.79	20.321
392.00	20.233
392.21	18.443
392.41	14.873
392.62	15.979
392.83	14.283
393.04	14.423
393.24	15.048
393.45	14.575
393.66	16.410
393.87	16.107
394.07	15.023
394.28	14.851
394.49	16.077
394.70	15.719
394.91	13.691
395.11	15.005
395.32	14.410
395.53	12.620
395.74	11.999
395.94	10.835
396.15	8.265
396.36	8.695
396.57	9.823
396.77	11.599
396.98	13.410
397.19	14.385
397.40	13.387
397.60	12.916
397.81	14.397
398.02	15.512
398.22	15.034
398.43	16.957
398.64	16.076
398.85	15.610
399.05	12.679
399.26	12.451
399.47	13.068
399.68	13.144
399.88	14.751
400.09	14.062
400.30	14.351
400.50	14.014
400.71	14.463
400.92	15.026
401.13	15.860
401.33	17.538
401.54	19.045
401.75	19.148
401.95	19.287
402.16	17.530
402.37	17.639
402.58	15.350
402.78	16.196
402.99	16.003
403.20	15.270
403.40	12.819
403.61	11.739
403.82	10.834
404.03	9.492
404.23	10.637
404.44	12.384
404.65	13.036
404.85	13.358
405.06	11.953
405.27	10.322
405.47	11.214
405.68	12.141
405.89	11.039
406.09	12.105
406.30	12.494
406.51	12.655
406.71	10.813
406.92	10.357
407.13	13.585
407.34	14.905
407.54	17.912
407.75	16.991
407.96	17.336
408.16	18.777
408.37	16.331
408.58	17.030
408.78	16.401
408.99	17.587
409.20	17.487
409.40	14.455
409.61	15.075
409.82	13.451
410.02	15.033
410.23	13.386
410.44	15.713
410.64	17.670
410.85	17.125
411.05	16.741
411.26	15.639
411.47	15.616
411.67	16.006
411.88	15.922
412.09	15.685
412.29	14.982
412.50	16.632
412.71	16.100
412.91	16.286
413.12	16.924
413.33	16.793
413.53	17.342
413.74	17.862
413.94	17.411
414.15	16.976
414.36	17.783
414.56	17.419
414.77	17.323
414.98	16.184
415.18	16.219
415.39	15.965
415.59	15.959
415.80	16.694
416.01	15.924
416.21	17.006
416.42	15.849
416.63	15.247
416.83	14.438
417.04	13.475
417.24	13.286
417.45	12.743
417.66	13.938
417.86	13.276
418.07	12.836
418.27	12.340
418.48	11.115
418.69	12.124
418.89	12.678
419.10	13.361
419.30	14.075
419.51	14.302
419.72	14.097
419.92	13.657
420.13	14.143
420.33	14.912
420.54	14.475
420.75	15.179
420.95	14.677
421.16	14.373
421.36	14.968
421.57	15.197
421.78	15.186
421.98	15.003
422.19	14.472
422.39	14.255
422.60	13.434
422.80	13.514
423.01	12.815
423.22	12.413
423.42	12.410
423.63	12.420
423.83	12.222
424.04	12.572
424.24	13.130
424.45	13.484
424.66	13.990
424.86	14.055
425.07	14.361
425.27	15.110
425.48	15.365
425.68	15.669
425.89	14.475
426.10	13.998
426.30	14.324
426.51	14.302
426.71	13.610
426.92	12.358
427.12	13.577
427.33	13.725
427.53	13.841
427.74	15.616
427.94	15.211
428.15	16.600
428.36	17.086
428.56	16.621
428.77	17.101
428.97	18.392
429.18	19.654
429.38	18.344
429.59	18.763
429.79	17.346
430.00	15.988
430.20	18.009
430.41	17.667
430.61	18.028
430.82	18.194
431.02	17.673
431.23	17.629
431.43	17.636
431.64	18.173
431.84	17.593
432.05	18.686
432.26	19.822
432.46	16.833
432.67	16.358
432.87	15.769
433.08	14.900
433.28	15.001
433.49	14.700
433.69	14.312
433.90	14.461
434.10	14.443
434.31	14.254
434.51	14.201
434.72	15.147
434.92	16.110
435.13	16.268
435.33	16.325
435.54	15.761
435.74	15.203
435.95	16.651
436.15	17.162
436.36	17.936
436.56	17.962
436.76	17.425
436.97	19.004
437.17	19.467
437.38	19.882
437.58	20.181
437.79	20.690
437.99	20.775
438.20	20.538
438.40	20.379
438.61	20.977
438.81	21.092
439.02	20.990
439.22	19.538
439.43	19.005
439.63	18.607
439.84	18.110
440.04	17.827
440.24	17.401
440.45	16.532
440.65	15.678
440.86	15.288
441.06	15.168
441.27	15.142
441.47	15.540
441.68	15.325
441.88	15.117
442.09	15.518
442.29	15.309
442.49	15.680
442.70	16.534
442.90	16.445
443.11	15.505
443.31	16.035
443.52	15.949
443.72	14.932
443.93	14.419
444.13	14.647
444.33	14.195
444.54	14.758
444.74	14.141
444.95	13.738
445.15	13.889
445.36	14.073
445.56	13.131
445.76	13.086
445.97	13.952
446.17	14.672
446.38	15.237
446.58	15.310
446.79	15.387
446.99	15.672
447.19	15.571
447.40	15.506
447.60	16.028
447.81	17.012
448.01	17.281
448.21	16.898
448.42	16.164
448.62	15.219
448.83	15.608
449.03	15.048
449.23	15.396
449.44	15.422
449.64	14.729
449.85	14.097
450.05	14.052
450.25	13.903
450.46	14.332
450.66	14.662
450.87	14.939
451.07	15.195
451.27	14.821
451.48	15.241
451.68	15.656
451.88	16.140
452.09	16.460
452.29	15.939
452.50	15.737
452.70	15.687
452.90	15.969
453.11	15.794
453.31	15.830
453.51	16.041
453.72	15.944
453.92	14.523
454.13	15.332
454.33	15.766
454.53	16.425
454.74	17.191
454.94	17.061
455.14	17.305
455.35	17.696
455.55	16.618
455.75	17.530
455.96	18.133
456.16	18.319
456.37	18.256
456.57	17.468
456.77	16.658
456.98	15.390
457.18	15.501
457.38	15.344
457.59	15.598
457.79	14.969
457.99	14.600
458.20	13.860
458.40	14.176
458.60	13.931
458.81	13.809
459.01	13.084
459.21	13.574
459.42	13.728
459.62	13.424
459.82	12.607
460.03	13.398
460.23	12.832
460.43	12.991
460.64	13.099
460.84	13.128
461.04	13.357
461.25	14.459
461.45	15.010
461.65	14.174
461.86	13.716
462.06	13.899
462.26	13.256
462.46	14.489
462.67	13.544
462.87	14.015
463.07	14.423
463.28	14.069
463.48	12.757
463.68	12.527
463.89	14.962
464.09	15.194
464.29	15.520
464.49	16.129
464.70	16.162
464.90	17.730
465.10	16.622
465.31	16.397
465.51	16.908
465.71	18.086
465.92	17.963
466.12	17.173
466.32	18.415
466.52	19.836
466.73	19.540
466.93	18.833
467.13	18.171
467.33	17.973
467.54	19.153
467.74	18.116
467.94	17.266
468.15	16.564
468.35	15.451
468.55	14.678
468.75	13.835
468.96	13.892
469.16	13.942
469.36	14.502
469.56	15.538
469.77	14.504
469.97	15.555
470.17	16.162
470.37	16.186
470.58	16.091
470.78	15.887
470.98	15.557
471.18	16.793
471.39	17.095
471.59	16.524
471.79	15.932
471.99	15.017
472.20	15.205
472.40	14.604
472.60	15.206
472.80	15.117
473.01	15.887
473.21	16.379
473.41	15.947
473.61	14.779
473.82	15.087
474.02	15.095
474.22	16.158
474.42	15.589
474.63	16.260
474.83	16.584
475.03	17.210
475.23	16.066
475.43	14.974
475.64	14.249
475.84	14.760
476.04	14.305
476.24	14.589
476.44	13.901
476.65	14.392
476.85	13.562
477.05	12.752
477.25	12.046
477.46	12.724
477.66	12.944
477.86	13.270
478.06	13.336
478.26	13.352
478.47	13.995
478.67	14.688
478.87	13.608
479.07	14.505
479.27	15.077
479.48	15.475
479.68	14.011
479.88	14.721
480.08	14.979
480.28	15.620
480.48	15.736
480.69	15.411
480.89	15.156
481.09	15.481
481.29	14.739
481.49	14.730
481.70	14.518
481.90	15.140
482.10	14.410
482.30	13.968
482.50	13.874
482.70	13.504
482.91	13.767
483.11	13.539
483.31	13.520
483.51	13.519
483.71	13.315
483.91	13.219
484.12	13.233
484.32	13.334
484.52	13.227
484.72	13.082
484.92	13.300
485.12	13.108
485.32	13.212
485.53	13.158
485.73	12.972
485.93	12.833
486.13	13.054
486.33	12.825
486.53	12.774
486.73	12.920
486.94	12.937
487.14	12.789
487.34	12.905
487.54	12.747
487.74	13.118
487.94	13.331
488.14	13.423
488.35	13.684
488.55	14.001
488.75	13.625
488.95	13.704
489.15	13.439
489.35	13.819
489.55	14.019
489.75	13.818
489.96	13.508
490.16	13.493
490.36	13.600
490.56	13.295
490.76	13.575
490.96	14.373
491.16	14.350
491.36	14.401
491.56	14.388
491.77	13.700
491.97	13.760
492.17	13.942
492.37	14.264
492.57	14.125
492.77	14.271
492.97	13.999
493.17	13.969
493.37	13.761
493.57	13.578
493.78	13.437
493.98	14.335
494.18	15.039
494.38	15.027
494.58	14.057
494.78	14.010
494.98	14.161
495.18	15.193
495.38	15.306
495.58	15.956
495.78	16.699
495.98	16.203
496.19	15.999
496.39	15.210
496.59	14.843
496.79	16.647
496.99	17.050
497.19	16.679
497.39	15.578
497.59	14.715
497.79	14.050
497.99	14.174
498.19	14.673
498.39	14.057
498.59	14.272
498.79	14.854
498.99	14.437
499.19	14.994
499.40	15.259
499.60	15.910
499.80	16.401
500.00	17.040
500.20	17.074
500.40	16.744
500.60	16.417
500.80	17.468
501.00	17.736
501.20	16.866
501.40	15.969
501.60	15.789
501.80	16.066
502.00	16.445
502.20	16.252
502.40	16.396
502.60	16.936
502.80	17.305
503.00	17.272
503.20	16.895
503.40	16.790
503.60	17.517
503.80	16.983
504.00	16.288
504.20	15.733
504.40	15.849
504.60	15.651
504.80	15.450
505.00	15.787
505.20	14.345
505.40	14.291
505.60	13.921
505.80	13.625
506.00	14.489
506.20	14.434
506.40	14.867
506.60	14.979
506.80	14.301
507.00	14.251
507.20	14.367
507.40	15.129
507.60	14.291
507.80	14.635
508.00	15.211
508.20	14.919
508.40	14.781
508.60	15.196
508.80	14.317
509.00	14.831
509.20	14.678
509.40	14.793
509.60	15.082
509.80	15.544
510.00	16.008
510.20	15.772
510.40	15.523
510.60	16.021
510.80	15.696
511.00	16.299
511.20	16.377
511.40	16.159
511.60	16.067
511.80	16.139
512.00	16.574
512.20	16.640
512.40	16.461
512.60	16.442
512.80	15.822
513.00	15.927
513.20	16.220
513.40	16.549
513.60	16.589
513.80	17.162
513.99	16.669
514.19	17.432
514.39	17.441
514.59	17.026
514.79	17.254
514.99	17.035
515.19	16.657
515.39	16.770
515.59	16.348
515.79	16.685
515.99	15.642
516.19	15.814
516.39	15.412
516.59	15.115
516.79	15.177
516.98	14.736
517.18	15.594
517.38	16.131
517.58	16.041
517.78	16.383
517.98	16.321
518.18	17.027
518.38	16.761
518.58	16.849
518.78	16.836
518.98	16.658
519.18	17.459
519.37	17.289
519.57	17.319
519.77	17.336
519.97	16.661
520.17	16.702
520.37	16.585
520.57	17.446
520.77	17.036
520.97	17.417
521.17	17.834
521.36	18.017
521.56	18.729
521.76	19.111
521.96	18.946
522.16	19.217
522.36	19.350
522.56	18.869
522.76	18.235
522.96	18.040
523.15	18.228
523.35	18.705
523.55	18.413
523.75	18.340
523.95	18.184
524.15	18.369
524.35	18.554
524.55	19.251
524.74	19.530
524.94	19.196
525.14	19.343
525.34	20.149
525.54	19.849
525.74	19.317
525.94	19.270
526.13	18.871
526.33	18.953
526.53	18.760
526.73	18.432
526.93	17.905
527.13	18.076
527.33	17.781
527.52	16.895
527.72	16.553
527.92	16.948
528.12	16.419
528.32	16.277
528.52	16.105
528.71	16.358
528.91	16.196
529.11	16.457
529.31	16.534
529.51	16.696
529.71	16.917
529.90	17.121
530.10	17.027
530.30	17.191
530.50	17.773
530.70	18.008
530.90	18.077
531.09	18.246
531.29	18.015
531.49	18.381
531.69	18.496
531.89	18.189
532.09	18.134
532.28	18.436
532.48	18.675
532.68	18.082
532.88	17.783
533.08	17.635
533.27	17.482
533.47	17.740
533.67	17.448
533.87	17.460
534.07	17.613
534.26	17.831
534.46	17.389
534.66	17.536
534.86	17.767
535.06	18.506
535.25	18.764
535.45	18.622
535.65	18.750
535.85	18.153
536.04	18.040
536.24	18.437
536.44	18.663
536.64	19.207
536.84	19.020
537.03	19.104
537.23	18.320
537.43	17.972
537.63	18.586
537.82	18.014
538.02	18.954
538.22	18.971
538.42	18.185
538.62	18.156
538.81	18.151
539.01	18.722
539.21	18.591
539.41	19.037
539.60	19.494
539.80	19.200
540.00	19.778
540.20	19.159
540.39	19.167
540.59	19.460
540.79	18.509
540.99	18.152
541.18	17.800
541.38	18.093
541.58	17.545
541.78	17.629
541.97	17.793
542.17	17.647
542.37	17.855
542.57	17.966
542.76	17.752
542.96	18.375
543.16	18.552
543.36	18.597
543.55	18.410
543.75	18.892
543.95	18.968
544.14	18.948
544.34	19.134
544.54	19.174
544.74	19.275
544.93	19.110
545.13	18.467
545.33	18.563
545.52	18.673
545.72	19.137
545.92	19.029
546.12	18.265
546.31	17.799
546.51	18.140
546.71	18.162
546.90	18.066
547.10	18.804
547.30	19.791
547.49	19.701
547.69	19.697
547.89	19.001
548.09	19.612
548.28	19.773
548.48	19.942
548.68	19.844
548.87	19.840
549.07	20.624
549.27	20.436
549.46	20.284
549.66	19.782
549.86	19.593
550.05	19.897
550.25	19.317
550.45	19.969
550.64	20.691
550.84	20.484
551.04	19.796
551.24	18.419
551.43	17.955
551.63	17.967
551.83	18.183
552.02	18.697
552.22	18.330
552.41	18.141
552.61	17.597
552.81	17.722
553.00	17.631
553.20	18.543
553.40	18.789
553.59	18.910
553.79	19.424
553.99	19.850
554.18	19.522
554.38	19.900
554.58	20.336
554.77	21.206
554.97	20.406
555.17	20.820
555.36	20.490
555.56	20.243
555.76	20.635
555.95	19.371
556.15	19.914
556.34	20.009
556.54	19.872
556.74	20.086
556.93	19.791
557.13	20.596
557.33	20.382
557.52	20.905
557.72	22.011
557.91	21.901
558.11	22.571
558.31	22.258
558.50	22.602
558.70	23.189
558.90	22.908
559.09	23.305
559.29	22.805
559.48	22.671
559.68	22.189
559.88	21.159
560.07	21.572
560.27	22.695
560.46	22.251
560.66	21.859
560.86	22.456
561.05	22.400
561.25	22.073
561.44	22.219
561.64	22.290
561.84	22.351
562.03	22.834
562.23	21.988
562.42	20.699
562.62	20.544
562.81	20.683
563.01	19.352
563.21	19.171
563.40	19.866
563.60	20.128
563.79	20.767
563.99	21.217
564.18	21.247
564.38	22.362
564.58	22.512
564.77	23.107
564.97	22.645
565.16	22.058
565.36	22.849
565.55	21.775
565.75	21.889
565.95	21.398
566.14	21.417
566.34	21.503
566.53	21.236
566.73	21.439
566.92	21.269
567.12	21.562
567.31	22.825
567.51	22.656
567.71	23.218
567.90	22.986
568.10	22.799
568.29	23.342
568.49	23.167
568.68	23.270
568.88	23.929
569.07	24.738
569.27	25.258
569.46	24.729
569.66	24.902
569.85	24.887
570.05	25.067
570.24	25.444
570.44	24.665
570.64	24.276
570.83	24.574
571.03	24.785
571.22	24.092
571.42	23.611
571.61	23.441
571.81	22.827
572.00	22.535
572.20	22.967
572.39	22.457
572.59	22.842
572.78	22.943
572.98	22.488
573.17	22.037
573.37	21.395
573.56	22.286
573.76	22.556
573.95	22.747
574.15	22.588
574.34	22.198
574.54	22.498
574.73	21.364
574.93	21.415
575.12	21.557
575.32	21.114
575.51	21.369
575.71	20.409
575.90	20.746
576.10	21.087
576.29	21.238
576.49	21.441
576.68	21.659
576.87	21.761
577.07	21.879
577.26	21.595
577.46	21.163
577.65	21.601
577.85	21.984
578.04	20.212
578.24	20.329
578.43	20.546
578.63	20.958
578.82	21.273
579.02	22.408
579.21	23.040
579.41	24.726
579.60	24.240
579.79	24.476
579.99	24.620
580.18	26.359
580.38	25.852
580.57	26.238
580.77	25.753
580.96	26.088
581.16	25.028
581.35	24.187
581.54	22.559
581.74	23.215
581.93	23.479
582.13	24.040
582.32	25.075
582.52	25.591
582.71	25.900
582.90	26.129
583.10	26.205
583.29	26.653
583.49	27.683
583.68	27.232
583.88	28.416
584.07	28.328
584.26	27.132
584.46	25.157
584.65	24.551
584.85	24.416
585.04	24.116
585.23	23.375
585.43	25.057
585.62	25.359
585.82	25.877
586.01	25.355
586.20	24.323
586.40	25.741
586.59	26.022
586.79	26.809
586.98	27.137
587.17	26.354
587.37	26.003
587.56	25.295
587.76	23.629
587.95	23.232
588.14	21.612
588.34	22.220
588.53	20.142
588.73	21.634
588.92	20.909
589.11	20.485
589.31	19.665
589.50	20.617
589.69	20.496
589.89	22.210
590.08	22.880
590.28	24.206
590.47	23.925
590.66	26.569
590.86	25.796
591.05	25.557
591.24	25.092
591.44	24.722
591.63	24.399
591.82	24.173
592.02	23.002
592.21	22.426
592.41	21.503
592.60	22.306
592.79	21.227
592.99	20.905
593.18	20.891
593.37	20.779
593.57	22.678
593.76	21.850
593.95	22.011
594.15	23.226
594.34	22.574
594.53	23.948
594.73	22.889
594.92	22.382
595.11	22.450
595.31	22.976
595.50	22.877
595.69	22.834
595.89	22.818
596.08	22.785
596.27	21.697
596.47	22.027
596.66	21.924
596.85	22.669
597.05	22.692
597.24	22.735
597.43	22.883
597.62	23.778
597.82	22.968
598.01	23.863
598.20	24.090
598.40	25.065
598.59	24.962
598.78	25.822
598.98	26.354
599.17	25.168
599.36	24.249
599.55	23.757
599.75	23.874
599.94	24.762
600.13	23.312
600.33	23.463
600.52	22.148
600.71	22.315
600.91	20.574
601.10	20.249
601.29	22.065
601.48	23.408
601.68	22.947
601.87	21.594
602.06	21.808
602.25	23.109
602.45	22.354
602.64	22.947
602.83	22.233
603.03	22.276
603.22	22.071
603.41	21.013
603.60	21.101
603.80	21.625
603.99	22.444
604.18	22.891
604.37	22.356
604.57	22.545
604.76	22.608
604.95	22.828
605.14	22.113
605.34	21.545
605.53	22.436
605.72	23.559
605.91	24.425
606.11	23.728
606.30	24.046
606.49	24.649
606.68	23.650
606.88	23.434
607.07	25.266
607.26	25.911
607.45	26.387
607.65	26.352
607.84	25.217
608.03	24.934
608.22	25.094
608.41	24.189
608.61	24.249
608.80	24.498
608.99	23.585
609.18	22.807
609.38	22.901
609.57	23.590
609.76	23.994
609.95	23.246
610.14	22.714
610.34	23.050
610.53	22.998
610.72	22.996
610.91	24.469
611.10	25.861
611.30	26.096
611.49	27.166
611.68	27.631
611.87	26.751
612.06	27.234
612.26	27.359
612.45	27.216
612.64	27.650
612.83	27.912
613.02	27.687
613.22	26.588
613.41	25.954
613.60	25.507
613.79	26.289
613.98	25.779
614.17	24.911
614.37	25.343
614.56	24.955
614.75	24.940
614.94	23.458
615.13	22.786
615.32	23.701
615.52	23.978
615.71	23.795
615.90	20.546
616.09	20.493
616.28	21.804
616.47	21.507
616.67	21.588
616.86	19.915
617.05	20.374
617.24	19.560
617.43	19.639
617.62	21.034
617.82	20.237
618.01	21.596
618.20	22.702
618.39	23.722
618.58	23.822
618.77	24.665
618.96	25.895
619.16	25.675
619.35	26.656
619.54	26.233
619.73	25.304
619.92	25.569
620.11	25.923
620.30	26.722
620.49	25.706
620.69	25.502
620.88	24.872
621.07	23.252
621.26	24.845
621.45	25.657
621.64	25.004
621.83	25.954
622.02	26.264
622.22	25.048
622.41	24.183
622.60	23.882
622.79	23.814
622.98	25.340
623.17	27.486
623.36	25.624
623.55	24.115
623.74	24.878
623.93	22.477
624.13	23.102
624.32	23.706
624.51	23.693
624.70	22.615
624.89	22.136
625.08	19.773
625.27	19.416
625.46	19.865
625.65	19.644
625.84	19.813
626.03	20.141
626.23	19.321
626.42	19.675
626.61	19.221
626.80	19.785
626.99	19.287
627.18	20.410
627.37	20.727
627.56	19.713
627.75	20.027
627.94	19.710
628.13	20.163
628.32	20.466
628.51	20.471
628.70	22.180
628.89	20.932
629.09	21.844
629.28	20.906
629.47	20.153
629.66	22.133
629.85	22.038
630.04	20.878
630.23	20.189
630.42	21.392
630.61	19.795
630.80	18.339
630.99	19.899
631.18	19.301
631.37	20.080
631.56	21.157
631.75	20.541
631.94	21.300
632.13	23.257
632.32	23.489
632.51	22.134
632.70	22.816
632.89	23.930
633.08	23.910
633.27	24.238
633.46	24.442
633.65	23.683
633.84	22.184
634.03	22.839
634.22	22.534
634.41	23.872
634.60	24.135
634.79	23.536
634.99	23.529
635.18	22.735
635.37	21.854
635.56	20.631
635.75	18.705
635.94	18.573
636.13	16.950
636.32	17.142
636.51	15.849
636.69	13.775
636.88	14.905
637.07	13.328
637.26	12.781
637.45	13.623
637.64	15.247
637.83	17.026
638.02	16.332
638.21	17.115
638.40	17.095
638.59	17.650
638.78	20.665
638.97	20.999
639.16	19.919
639.35	20.133
639.54	20.009
639.73	19.684
639.92	21.170
640.11	22.999
640.30	23.786
640.49	23.637
640.68	21.908
640.87	20.713
641.06	19.805
641.25	20.667
641.44	20.421
641.63	18.947
641.82	18.340
642.01	17.669
642.20	16.941
642.39	16.504
642.58	15.920
642.76	16.187
642.95	13.917
643.14	15.087
643.33	15.707
643.52	17.212
643.71	18.852
643.90	19.071
644.09	17.731
644.28	18.790
644.47	18.025
644.66	19.479
644.85	20.939
645.04	23.458
645.23	22.816
645.41	22.136
645.60	21.957
645.79	20.344
645.98	20.058
646.17	21.077
646.36	20.318
646.55	21.598
646.74	21.055
646.93	21.459
647.12	19.569
647.31	19.976
647.49	19.165
647.68	19.336
647.87	21.597
648.06	24.934
648.25	23.775
648.44	26.580
648.63	25.345
648.82	24.635
649.01	23.760
649.20	24.411
649.38	23.226
649.57	24.115
649.76	24.434
649.95	24.874
650.14	21.406
650.33	23.064
650.52	20.213
650.71	19.578
650.89	19.366
651.08	17.788
651.27	19.800
651.46	21.119
651.65	20.600
651.84	19.937
652.03	19.668
652.22	19.769
652.40	19.299
652.59	20.126
652.78	21.902
652.97	21.994
653.16	24.970
653.35	24.349
653.54	24.091
653.72	25.023
653.91	24.507
654.10	24.779
654.29	27.001
654.48	27.279
654.67	28.383
654.85	27.305
655.04	26.847
655.23	24.639
655.42	25.028
655.61	22.788
655.80	22.056
655.98	23.719
656.17	22.706
656.36	22.201
656.55	21.420
656.74	19.226
656.93	18.139
657.11	17.896
657.30	16.717
657.49	14.976
657.68	17.207
657.87	18.668
658.06	16.549
658.24	18.236
658.43	17.435
658.62	18.239
658.81	18.692
659.00	19.666
659.18	20.587
659.37	22.468
659.56	23.050
659.75	23.180
659.94	22.488
660.12	23.867
660.31	23.624
660.50	22.520
660.69	21.588
660.88	21.450
661.06	22.442
661.25	22.454
661.44	23.269
661.63	24.055
661.81	23.596
662.00	22.351
662.19	20.923
662.38	18.996
662.57	20.436
662.75	19.386
662.94	20.727
663.13	18.376
663.32	18.929
663.50	16.990
663.69	15.819
663.88	15.305
664.07	17.264
664.25	18.502
664.44	17.501
664.63	15.492
664.82	17.835
665.00	17.771
665.19	18.409
665.38	19.675
665.57	21.160
665.75	22.102
665.94	24.190
666.13	23.969
666.32	24.240
666.50	25.153
666.69	27.339
666.88	26.337
667.07	24.247
667.25	23.398
667.44	21.629
667.63	21.586
667.82	21.231
668.00	19.791
668.19	21.069
668.38	20.910
668.56	21.661
668.75	20.566
668.94	21.593
669.13	23.998
669.31	25.052
669.50	24.975
669.69	23.241
669.88	21.758
670.06	20.954
670.25	21.263
670.44	20.236
670.62	21.983
670.81	23.082
671.00	23.498
671.18	22.233
671.37	22.512
671.56	21.584
671.75	24.171
671.93	25.982
672.12	25.894
672.31	27.163
672.49	27.568
672.68	25.618
672.87	24.672
673.05	23.773
673.24	22.338
673.43	21.796
673.61	21.331
673.80	17.864
673.99	18.044
674.17	21.491
674.36	18.848
674.55	19.080
674.73	18.172
674.92	18.357
675.11	19.310
675.29	21.444
675.48	21.246
675.67	21.972
675.85	21.840
676.04	20.819
676.23	18.033
676.41	18.503
676.60	18.566
676.79	19.294
676.97	20.048
677.16	16.954
677.35	17.613
677.53	18.900
677.72	19.513
677.91	20.749
678.09	20.094
678.28	19.613
678.47	18.060
678.65	17.136
678.84	17.714
679.02	17.061
679.21	18.772
679.40	16.903
679.58	16.426
679.77	17.345
679.96	18.893
680.14	19.207
680.33	20.153
680.51	19.973
680.70	20.075
680.89	20.964
681.07	21.073
681.26	20.821
681.44	21.143
681.63	19.387
681.82	19.933
682.00	20.901
682.19	22.601
682.38	21.921
682.56	22.745
682.75	25.000
682.93	24.900
683.12	24.847
683.31	23.677
683.49	22.856
683.68	22.895
683.86	20.828
684.05	19.473
684.23	17.199
684.42	17.855
684.61	18.807
684.79	15.135
684.98	14.085
685.16	11.587
685.35	13.329
685.54	13.480
685.72	16.202
685.91	14.313
686.09	15.095
686.28	14.673
686.46	15.747
686.65	15.926
686.83	17.026
687.02	18.167
687.21	21.612
687.39	21.724
687.58	22.413
687.76	20.540
687.95	22.396
688.13	20.820
688.32	21.809
688.50	20.093
688.69	20.657
688.88	19.411
689.06	17.066
689.25	13.649
689.43	15.543
689.62	15.942
689.80	14.980
689.99	14.292
690.17	13.633
690.36	13.239
690.54	11.081
690.73	10.064
690.91	11.402
691.10	14.110
691.29	17.840
691.47	17.630
691.66	19.825
691.84	23.429
692.03	24.457
692.21	24.116
692.40	25.992
692.58	29.228
692.77	28.635
692.95	30.515
693.14	33.512
693.32	32.661
693.51	31.327
693.69	31.537
693.88	29.743
694.06	28.893
694.25	30.098
694.43	31.139
694.62	29.626
694.80	27.935
694.99	27.834
695.17	23.551
695.36	25.482
695.54	22.720
695.73	20.964
695.91	21.112
696.10	20.595
696.28	17.358
696.47	16.135
696.65	16.496
696.84	17.646
697.02	17.257
697.20	16.964
697.39	15.770
697.57	18.751
697.76	18.244
697.94	16.782
698.13	19.152
698.31	23.038
698.50	22.149
698.68	21.609
698.87	21.510
699.05	20.971
699.24	21.578
699.42	21.967
699.60	20.657
699.79	23.007
699.97	23.612
700.16	22.261
700.34	19.841
700.53	19.886
700.71	21.306
700.90	23.051
701.08	24.589
701.26	22.990
701.45	23.596
701.63	26.092
701.82	21.216
702.00	20.790
702.19	23.334
702.37	26.625
702.55	24.818
702.74	23.990
702.92	22.781
703.11	22.870
703.29	23.671
703.48	21.902
703.66	20.598
703.84	22.562
704.03	26.416
704.21	23.751
704.40	19.745
704.58	21.416
704.76	18.675
704.95	21.675
705.13	20.561
705.32	25.300
705.50	26.353
705.68	25.257
705.87	27.414
706.05	23.980
706.24	24.145
706.42	26.429
706.60	25.584
706.79	28.061
706.97	27.731
707.15	27.552
707.34	23.596
707.52	22.740
707.71	24.435
707.89	22.944
708.07	22.690
708.26	23.512
708.44	24.889
708.62	25.632
708.81	26.665
708.99	22.507
709.18	21.761
709.36	20.807
709.54	20.216
709.73	21.541
709.91	23.508
710.09	24.970
710.28	24.806
710.46	22.902
710.64	22.606
710.83	21.559
711.01	23.614
711.19	25.690
711.38	24.733
711.56	23.132
711.74	20.371
711.93	19.963
712.11	18.941
712.30	19.752
712.48	17.931
712.66	17.298
712.85	17.531
713.03	17.234
713.21	17.039
713.39	19.030
713.58	23.217
713.76	24.019
713.94	24.239
714.13	25.873
714.31	25.448
714.49	25.168
714.68	25.847
714.86	26.760
715.04	28.204
715.23	27.073
715.41	28.094
715.59	28.559
715.78	29.195
715.96	27.931
716.14	26.805
716.32	29.443
716.51	31.699
716.69	33.768
716.87	31.200
717.06	30.465
717.24	30.915
717.42	28.938
717.61	25.805
717.79	23.940
717.97	23.157
718.15	22.267
718.34	22.727
718.52	20.060
718.70	17.125
718.88	18.639
719.07	15.083
719.25	10.866
719.43	13.633
719.62	14.841
719.80	13.161
719.98	13.919
720.16	14.037
720.35	10.320
720.53	16.903
720.71	15.314
720.89	14.577
721.08	13.174
721.26	20.468
721.44	21.690
721.62	23.988
721.81	25.573
721.99	26.828
722.17	26.313
722.35	26.823
722.54	20.812
722.72	25.616
722.90	27.742
723.08	26.905
723.27	24.028
723.45	19.682
723.63	18.139
723.81	18.092
724.00	19.431
724.18	19.018
724.36	17.972
724.54	17.520
724.72	18.307
724.91	13.289
725.09	18.803
725.27	15.485
725.45	17.866
725.64	15.015
725.82	20.410
726.00	14.869
726.18	16.548
726.36	17.976
726.55	22.035
726.73	22.023
726.91	26.233
727.09	21.712
727.27	23.492
727.46	22.754
727.64	26.557
727.82	22.987
728.00	24.941
728.18	29.151
728.37	29.977
728.55	26.108
728.73	24.597
728.91	26.851
729.09	31.523
729.27	33.758
729.46	32.828
729.64	28.852
729.82	27.628
730.00	26.918
730.18	22.313
730.36	20.270
730.55	22.799
730.73	22.931
730.91	20.822
731.09	20.584
731.27	19.538
731.45	19.821
731.64	23.579
731.82	26.202
732.00	25.557
732.18	26.389
732.36	24.765
732.54	23.726
732.73	23.326
732.91	24.604
733.09	23.249
733.27	22.462
733.45	23.105
733.63	23.873
733.81	23.489
734.00	25.453
734.18	22.937
734.36	23.300
734.54	25.646
734.72	27.841
734.90	31.632
735.08	24.609
735.26	24.435
735.45	23.717
735.63	22.642
735.81	20.394
735.99	18.062
736.17	24.497
736.35	27.430
736.53	29.687
736.71	26.803
736.89	21.929
737.08	28.938
737.26	27.651
737.44	29.977
737.62	33.498
737.80	34.013
737.98	36.993
738.16	33.844
738.34	29.831
738.52	28.209
738.70	28.344
738.89	31.638
739.07	31.535
739.25	32.401
739.43	30.726
739.61	25.939
739.79	27.292
739.97	27.855
740.15	31.622
740.33	35.052
740.51	31.614
740.69	33.438
740.87	27.867
741.06	27.765
741.24	28.138
741.42	28.477
741.60	31.430
741.78	31.553
741.96	31.589
742.14	27.561
742.32	28.374
742.50	35.635
742.68	33.740
742.86	35.514
743.04	34.184
743.22	34.775
743.40	28.219
743.58	25.778
743.76	29.172
743.94	30.155
744.12	32.466
744.30	29.919
744.49	29.451
744.67	34.817
744.85	36.064
745.03	40.579
745.21	45.292
745.39	50.620
745.57	53.292
745.75	52.322
745.93	50.252
746.11	53.417
746.29	55.342
746.47	49.972
746.65	45.759
746.83	41.927
747.01	38.720
747.19	33.138
747.37	33.620
747.55	34.504
747.73	30.098
747.91	32.208
748.09	33.068
748.27	30.093
748.45	31.400
748.63	28.503
748.81	32.877
748.99	38.013
749.17	38.007
749.35	33.780
749.53	31.386
749.71	31.934
749.89	30.881
750.07	30.769
750.25	29.869
750.43	25.970
750.61	26.725
750.79	30.176
750.97	30.378
751.15	33.520
751.33	37.718
751.51	42.262
751.69	43.788
751.87	39.669
752.05	36.809
752.23	36.876
752.40	39.379
752.58	37.960
752.76	33.419
752.94	28.415
753.12	32.572
753.30	33.682
753.48	33.090
753.66	33.225
753.84	38.023
754.02	36.101
754.20	41.480
754.38	42.154
754.56	42.423
754.74	46.756
754.92	46.423
755.10	41.036
755.28	35.844
755.46	29.041
755.64	26.485
755.81	27.767
755.99	27.733
756.17	24.068
756.35	24.171
756.53	24.231
756.71	22.686
756.89	26.499
757.07	23.087
757.25	25.411
757.43	25.710
757.61	29.339
757.79	26.808
757.96	28.463
758.14	30.170
758.32	23.477
758.50	23.223
758.68	27.281
758.86	25.318
759.04	30.109
759.22	27.527
759.40	27.839
759.58	25.566
759.75	22.875
759.93	26.519
760.11	30.054
760.29	35.584
760.47	33.904
760.65	30.851
760.83	28.016
761.01	30.120
761.19	34.725
761.36	34.301
761.54	35.397
761.72	38.754
761.90	32.752
762.08	27.251
762.26	24.650
762.44	27.108
762.62	21.225
762.79	25.409
762.97	20.644
763.15	16.556
763.33	14.508
763.51	14.342
763.69	11.895
763.87	12.629
764.04	17.190
764.22	16.288
764.40	20.707
764.58	22.551
764.76	22.416
764.94	21.578
765.11	24.907
765.29	29.140
765.47	31.645
765.65	33.490
765.83	38.700
766.01	36.203
766.18	39.086
766.36	36.453
766.54	35.090
766.72	36.920
766.90	36.504
767.08	35.933
767.25	37.299
767.43	35.982
767.61	34.132
767.79	29.553
767.97	27.511
768.14	26.300
768.32	30.917
768.50	29.451
768.68	24.381
768.86	32.073
769.03	34.027
769.21	34.054
769.39	34.483
769.57	36.005
769.75	34.080
769.92	36.725
770.10	37.032
770.28	29.632
770.46	34.590
770.64	37.088
770.81	36.381
770.99	34.444
771.17	29.346
771.35	31.081
771.53	32.739
771.70	35.646
771.88	39.398
772.06	41.904
772.24	45.922
772.41	46.298
772.59	43.844
772.77	40.045
772.95	43.226
773.12	44.884
773.30	40.726
773.48	39.480
773.66	41.116
773.84	41.070
774.01	37.960
774.19	30.985
774.37	27.803
774.55	30.703
774.72	36.822
774.90	38.413
775.08	47.842
775.25	53.656
775.43	60.546
775.61	57.043
775.79	44.681
775.96	49.466
776.14	49.208
776.32	52.882
776.50	44.464
776.67	44.835
776.85	37.664
777.03	29.514
777.21	31.370
777.38	29.143
777.56	32.653
777.74	52.921
777.91	51.003
778.09	60.750
778.27	55.385
778.45	68.233
778.62	66.449
778.80	67.382
778.98	64.954
779.15	56.022
779.33	56.378
779.51	52.709
779.68	48.551
779.86	43.517
780.04	46.222
780.22	41.336
780.39	34.489
780.57	35.346
780.75	33.110
780.92	39.590
781.10	36.784
781.28	39.184
781.45	47.830
781.63	47.867
781.81	43.376
781.98	35.773
782.16	45.415
782.34	47.251
782.51	42.596
782.69	44.784
782.87	40.279
783.04	50.504
783.22	48.075
783.40	36.633
783.57	32.143
783.75	45.885
783.93	47.967
784.10	48.113
784.28	44.788
784.46	49.126
784.63	43.330
784.81	45.390
784.99	47.048
785.16	51.643
785.34	56.068
785.52	60.960
785.69	56.149
785.87	57.872
786.04	54.163
786.22	47.349
786.40	53.093
786.57	56.438
786.75	56.989
786.93	50.000
787.10	51.613
787.28	53.829
787.45	50.873
787.63	54.083
787.81	53.063
787.98	54.914
788.16	63.650
788.34	59.363
788.51	57.364
788.69	63.262
788.86	70.091
789.04	57.035
789.22	53.599
789.39	46.168
789.57	40.463
789.74	42.194
789.92	31.840
790.10	30.038
790.27	32.977
790.45	38.652
790.62	35.563
790.80	34.660
790.97	36.166
791.15	36.590
791.33	38.959
791.50	48.033
791.68	50.369
791.85	62.974
792.03	64.693
792.21	63.974
792.38	54.182
792.56	41.495
792.73	44.824
792.91	50.234
793.08	45.405
793.26	39.272
793.44	30.968
793.61	33.635
793.79	20.892
793.96	34.269
794.14	31.718
794.31	40.779
794.49	50.096
794.66	52.608
794.84	46.605
795.01	59.367
795.19	65.556
795.37	56.742
795.54	46.454
795.72	62.313
795.89	59.381
796.07	47.255
796.24	49.792
796.42	50.506
796.59	46.077
796.77	47.531
796.94	36.595
797.12	27.476
797.29	43.318
797.47	55.133
797.64	40.356
797.82	46.448
797.99	53.236
798.17	49.567
798.35	42.697
798.52	41.940
798.70	38.141
798.87	36.300
799.05	48.000
799.22	38.163
799.40	25.218
799.57	29.910
799.75	26.389
799.92	20.025
800.10	20.528
800.27	35.985
800.45	36.444
800.62	31.742
800.79	41.838
800.97	53.514
801.14	50.055
801.32	59.778
801.49	59.164
801.67	62.426
801.84	74.557
802.02	76.728
802.19	77.273
802.37	72.714
802.54	93.495
802.72	86.651
802.89	69.311
803.07	75.302
803.24	75.209
803.42	74.902
803.59	78.446
803.76	70.316
803.94	70.635
804.11	65.398
804.29	69.557
804.46	60.651
804.64	60.674
804.81	63.124
804.99	70.565
805.16	64.313
805.34	67.253
805.51	49.735
805.68	44.317
805.86	41.399
806.03	29.889
806.21	43.750
806.38	46.522
806.56	46.429
806.73	36.297
806.90	21.651
807.08	28.378
807.25	21.116
807.43	30.651
807.60	33.876
807.78	33.591
807.95	48.093
808.12	39.039
808.30	28.587
808.47	30.300
808.65	25.644
808.82	20.774
808.99	10.375
809.17	1.979
809.34	5.936
809.52	10.828
809.69	25.976
809.86	19.584
810.04	29.464
810.21	47.338
810.39	68.762
810.56	81.732
810.73	84.052
810.91	81.931
811.08	82.910
811.25	98.446
811.43	90.184
811.60	71.727
811.78	73.263
811.95	59.873
812.12	58.611
812.30	44.986
812.47	38.009
812.64	43.434
812.82	53.010
812.99	53.947
813.17	43.128
813.34	40.613
813.51	44.146
813.69	48.401
813.86	61.518
814.03	49.107
814.21	61.139
814.38	68.585
814.55	61.111
814.73	47.070
814.90	50.555
815.07	57.077
815.25	67.745
815.42	71.707
815.59	67.467
815.77	40.957
815.94	39.104
816.11	41.795
816.29	26.667
816.46	20.765
816.63	28.033
816.81	34.186
816.98	37.519
817.15	28.472
817.33	25.267
817.50	20.464
817.67	34.085
817.85	57.778
818.02	57.879
818.19	82.653
818.37	89.030
818.54	91.982
818.71	86.047
818.88	79.528
819.06	80.093
819.23	73.822
819.40	71.214
819.58	68.293
819.75	59.031
819.92	54.144
820.09	37.321
820.27	20.726
820.44	11.176
820.61	18.385
820.79	13.992
820.96	10.843
821.13	9.082
821.30	18.377
821.48	21.977
821.65	15.279
821.82	13.544
822.00	19.956
822.17	24.499
822.34	29.733
822.51	24.487
822.69	22.681
822.86	24.799
823.03	26.005
823.20	28.364
823.38	27.440
823.55	28.814
823.72	28.330
823.89	27.412
824.07	26.241
824.24	23.815
824.41	25.496
824.58	27.999
824.76	25.075
824.93	25.626
825.10	22.954
825.27	24.309
825.45	21.979
825.62	24.722
825.79	23.565
825.96	24.178
826.13	28.139
826.31	28.646
826.48	23.656
826.65	25.100
826.82	25.397
827.00	28.191
827.17	29.562
827.34	33.629
827.51	31.325
827.68	29.262
827.86	28.404
828.03	23.605
828.20	25.672
828.37	26.218
828.54	30.961
828.72	32.329
828.89	23.980
829.06	27.474
829.23	28.850
829.40	34.379
829.58	36.975
829.75	40.837
829.92	46.367
830.09	46.830
830.26	51.418
830.44	49.574
830.61	54.254
830.78	55.480
830.95	50.045
831.12	39.130
831.29	33.633
831.47	39.843
831.64	48.009
831.81	45.946
831.98	36.053
832.15	51.869
832.32	49.067
832.50	34.091
832.67	48.928
832.84	50.438
833.01	55.104
833.18	47.981
833.35	54.221
833.53	43.366
833.70	46.920
833.87	56.452
834.04	45.006
834.21	37.862
834.38	40.366
834.55	40.095
834.72	40.270
834.90	42.409
835.07	37.241
835.24	31.940
835.41	33.162
835.58	26.641
835.75	23.225
835.92	24.810
836.10	24.961
836.27	22.543
836.44	24.096
836.61	20.338
836.78	18.100
836.95	26.661
837.12	33.094
837.29	38.648
837.46	48.196
837.64	42.999
837.81	47.429
837.98	52.039
838.15	54.113
838.32	47.143
838.49	42.605
838.66	48.194
838.83	44.714
839.00	36.224
839.17	25.420
839.34	19.392
839.52	17.497
839.69	5.875
839.86	10.624
840.03	6.743
840.20	3.231
840.37	15.871
840.54	-8.136
840.71	2.622
840.88	24.477
841.05	32.121
841.22	23.559
841.39	30.466
841.56	40.275
841.74	38.255
841.91	52.281
842.08	54.887
842.25	40.234
842.42	40.295
842.59	52.887
842.76	33.190
842.93	52.229
843.10	67.258
843.27	69.454
843.44	69.527
843.61	73.723
843.78	69.123
843.95	75.400
844.12	90.141
844.29	91.409
844.46	96.806
844.63	108.884
844.80	81.681
844.97	66.875
845.14	19.665
845.31	-26.000
845.48	29.911
845.65	2.488
845.82	21.656
845.99	49.823
846.16	51.220
846.33	-16.667
846.50	12.857
846.67	-1300.000
846.85	632.353
847.02	347.009
847.19	217.788
847.36	284.906
847.53	1068.421
847.70	346.269
847.87	1627.273
848.03	358.252
848.20	163.636
848.37	108.602
848.54	102.917
848.71	95.417
848.88	101.942
849.05	129.771
849.22	229.293
849.39	180.000
849.56	159.091
849.73	683.333
849.90	131.915
850.07	-91.429
850.24	-495.833
850.41	544.186
850.58	658.974
850.75	190.547
850.92	263.014
851.09	348.276
851.26	-1588.889
851.43	662.319
851.60	412.987
851.77	5015.385
851.94	792.308
852.11	1000.000
852.28	-583.158
852.45	-736.986
852.62	-490.385
852.79	-242.012
852.96	-375.362
853.12	-225.000
853.29	-80.531
853.46	-25.758
853.63	-50.228
853.80	-57.143
853.97	-20.645
854.14	-32.740
854.31	-70.755
854.48	-171.429
854.65	-172.973
854.82	984.906
854.99	455.357
855.16	250.431
855.33	252.174
855.49	223.671
855.66	287.500
855.83	226.119
856.00	137.821
856.17	169.898
856.34	276.923
856.51	170.647
856.68	258.442
856.85	251.087
857.02	1608.333
857.18	170.166
857.35	435.165
857.52	306.618
857.69	303.333
857.86	567.143
858.03	380.165
858.20	-736.735
858.37	-665.625
858.54	1600.000
858.70	376.033
858.87	551.852
859.04	-620.930
859.21	824.242
859.38	1629.412
859.55	-802.273
859.72	677.612
859.89	357.983
860.05	167.657
860.22	149.877
860.39	172.386
860.56	208.309
860.73	195.602
860.90	180.306
861.07	172.648
861.23	185.480
861.40	147.538
861.57	158.255
861.74	211.296
861.91	278.475
862.08	1635.484
862.24	48700.000
862.41	-350.495
862.58	-220.548
862.75	-810.204
862.92	-850.980
863.09	921.311
863.25	-7014.286
863.42	640.909
863.59	608.491
863.76	495.200
863.93	295.074
864.10	369.444
864.26	572.043
864.43	187.591
864.60	251.282
864.77	248.876
864.94	1535.714
865.10	345.038
865.27	494.186
865.44	290.798
865.61	292.571
865.78	272.189
865.94	204.297
866.11	192.883
866.28	404.800
866.45	278.125
866.62	224.405
866.78	110.204
866.95	141.447
867.12	109.914
867.29	72.822
867.46	63.087
867.62	61.893
867.79	74.656
867.96	60.092
868.13	71.882
868.29	73.077
868.46	82.251
868.63	71.533
868.80	89.021
868.97	96.453
869.13	114.741
869.30	131.296
869.47	226.027
869.64	278.528
869.80	371.756
869.97	301.429
870.14	321.233
870.31	318.182
870.47	-3192.857
870.64	32500.000
870.81	-5483.333
870.98	979.487
871.14	-4190.000
871.31	239.487
871.48	209.292
871.65	170.139
871.81	164.669
871.98	182.192
872.15	214.170
872.31	195.556
872.48	233.333
872.65	207.067
872.82	292.908
872.98	131.488
873.15	132.677
873.32	120.601
873.48	141.494
873.65	143.498
873.82	158.238
873.99	139.910
874.15	79.636
874.32	78.481
874.49	93.802
874.65	84.252
874.82	111.538
874.99	131.174
875.16	192.661
875.32	254.225
875.49	261.006
875.66	256.818
875.82	196.311
875.99	361.194
876.16	-34500.000
876.32	7460.000
876.49	-264.198
876.66	4083.333
876.82	-343.478
876.99	-290.909
877.16	-491.429
877.32	847.619
877.49	-310.526
877.66	289.394
877.82	140.957
877.99	124.303
878.16	119.718
878.32	101.681
878.49	119.196
878.66	129.707
878.82	104.607
878.99	79.053
879.16	85.924
879.32	62.500
879.49	58.600
879.66	80.114
879.82	73.469
879.99	38.605
880.16	204.444
880.32	112.821
880.49	253.247
880.65	-1307.692
880.82	385.246
880.99	203.797
881.15	4525.000
881.32	320.988
881.49	151.965
881.65	277.143
881.82	169.497
881.98	132.924
882.15	119.512
882.32	87.458
882.48	80.993
882.65	92.512
882.82	103.318
882.98	88.517
883.15	93.740
883.31	82.222
883.48	63.320
883.65	61.757
883.81	62.675
883.98	63.330
884.14	59.907
884.31	64.165
884.48	50.719
884.64	47.419
884.81	46.326
884.97	40.548
885.14	47.282
885.30	50.111
885.47	56.070
885.64	48.280
885.80	43.287
885.97	40.328
886.13	36.696
886.30	53.095
886.47	57.706
886.63	56.082
886.80	58.027
886.96	51.175
887.13	50.332
887.29	45.069
887.46	54.684
887.62	59.880
887.79	50.230
887.96	60.230
888.12	-0.000
888.29	326.316
888.45	78.846
888.62	-68.317
888.78	-218.182
>>>>>End Processed Spectral Data<<<<<
