SpectraSuite Data File
++++++++++++++++++++++++++++++++++++
Date: Mon Jan 12 10:55:20 EST 2009
User: Lex
Dark Spectrum Present: Yes
Reference Spectrum Present: Yes
Number of Sampled Component Spectra: 1
Spectrometers: USB4E03001
Integration Time (usec): 100000 (USB4E03001)
Spectra Averaged: 5 (USB4E03001)
Boxcar Smoothing: 5 (USB4E03001)
Correct for Electrical Dark: No (USB4E03001)
Strobe/Lamp Enabled: Yes (USB4E03001)
Correct for Detector Non-linearity: No (USB4E03001)
Correct for Stray Light: No (USB4E03001)
Number of Pixels in Processed Spectrum: 3648
>>>>>Begin Processed Spectral Data<<<<<
177.57	-73.333
177.79	-73.333
178.01	-73.333
178.23	600.000
178.45	-111.864
178.66	77.632
178.88	101.493
179.10	83.271
179.32	53.135
179.54	35.309
179.76	60.859
179.98	61.983
180.20	73.030
180.42	79.365
180.64	217.391
180.86	615.385
181.08	188.034
181.30	198.953
181.52	281.752
181.74	956.000
181.96	-2436.842
182.18	-851.429
182.40	-913.699
182.62	-3922.222
182.84	-1293.333
183.06	5553.333
183.28	1056.716
183.50	-771.429
183.72	-925.714
183.94	-1006.349
184.16	744.737
184.38	-816.176
184.60	-700.000
184.82	688.372
185.04	6400.000
185.26	332.692
185.48	-306.250
185.69	-100.000
185.91	-6.452
186.13	120.635
186.35	154.098
186.57	-239.623
186.79	42.424
187.01	102.857
187.23	-376.087
187.45	-236.792
187.67	-241.304
187.89	-270.968
188.11	412.987
188.33	917.241
188.55	-277.193
188.77	-1700.000
188.99	284.946
189.21	298.400
189.42	206.341
189.64	230.645
189.86	240.000
190.08	155.303
190.30	255.294
190.52	6300.000
190.74	250.000
190.96	621.212
191.18	-773.810
191.40	-84.699
191.62	-42.953
191.84	-51.713
192.06	-46.711
192.27	-31.602
192.49	-35.526
192.71	-463.158
192.93	-117.829
193.15	16.172
193.37	10.270
193.59	-18.261
193.81	-61.111
194.03	-136.986
194.25	-57.391
194.47	3150.000
194.68	-320.896
194.90	-284.000
195.12	-3.759
195.34	186.842
195.56	116.667
195.78	270.690
196.00	267.000
196.22	148.718
196.44	210.204
196.66	196.094
196.87	223.404
197.09	164.286
197.31	280.870
197.53	-2458.333
197.75	5516.667
197.97	1688.462
198.19	-741.304
198.41	-430.882
198.63	-129.379
198.84	-176.190
199.06	-25.862
199.28	11.640
199.50	-45.000
199.72	-31.288
199.94	-326.415
200.16	-12.687
200.38	2.027
200.59	-72.321
200.81	-55.160
201.03	-106.500
201.25	-148.263
201.47	-550.000
201.69	729.577
201.91	297.126
202.13	216.872
202.34	210.995
202.56	129.766
202.78	149.003
203.00	140.392
203.22	106.601
203.44	106.714
203.66	91.873
203.87	149.102
204.09	146.552
204.31	1060.000
204.53	-531.034
204.75	564.286
204.97	474.074
205.19	1875.000
205.40	3310.000
205.62	1733.333
205.84	693.548
206.06	-2340.000
206.28	356.835
206.50	681.538
206.71	231.892
206.93	190.222
207.15	265.698
207.37	265.517
207.59	212.179
207.81	136.596
208.02	101.042
208.24	101.305
208.46	96.542
208.68	93.656
208.90	107.750
209.12	184.459
209.33	191.703
209.55	130.488
209.77	158.496
209.99	129.048
210.21	164.798
210.43	217.358
210.64	236.559
210.86	197.026
211.08	577.500
211.30	857.143
211.52	522.222
211.74	385.714
211.95	609.434
212.17	311.628
212.39	202.778
212.61	113.740
212.83	53.608
213.04	171.186
213.26	194.805
213.48	168.800
213.70	158.228
213.92	84.127
214.13	122.275
214.35	133.333
214.57	191.525
214.79	-2927.273
215.01	-305.882
215.22	-1212.500
215.44	437.795
215.66	571.429
215.88	400.000
216.10	992.105
216.31	-611.111
216.53	-214.844
216.75	-164.497
216.97	-164.574
217.19	-502.727
217.40	-2028.571
217.62	-645.679
217.84	-220.370
218.06	-300.000
218.27	-162.632
218.49	-389.720
218.71	-2805.882
218.93	-1830.000
219.15	-4620.000
219.36	-508.333
219.58	-351.020
219.80	4100.000
220.02	288.710
220.23	185.597
220.45	128.692
220.67	195.074
220.89	201.863
221.11	436.250
221.32	4260.000
221.54	-240.517
221.76	3500.000
221.98	585.915
222.19	-858.333
222.41	-394.643
222.63	-134.270
222.85	-467.949
223.06	-647.222
223.28	-959.375
223.50	-165.979
223.72	-472.727
223.93	401.389
224.15	413.433
224.37	-531.429
224.59	-1400.000
224.80	-543.590
225.02	-186.207
225.24	-5.769
225.46	39.394
225.67	-1.734
225.89	3033.333
226.11	461.644
226.33	378.462
226.54	330.769
226.76	213.084
226.98	667.647
227.20	851.515
227.41	250.649
227.63	292.537
227.85	178.067
228.06	98.789
228.28	80.952
228.50	41.071
228.72	34.595
228.93	31.868
229.15	35.385
229.37	34.431
229.59	33.333
229.80	31.566
230.02	41.629
230.24	55.114
230.45	63.494
230.67	61.127
230.89	62.975
231.11	79.006
231.32	69.257
231.54	79.905
231.76	78.497
231.97	87.572
232.19	90.652
232.41	67.473
232.63	41.304
232.84	59.091
233.06	67.733
233.28	107.622
233.49	88.379
233.71	103.976
233.93	102.718
234.14	97.794
234.36	78.426
234.58	86.237
234.79	91.364
235.01	89.424
235.23	87.229
235.45	99.237
235.66	85.929
235.88	97.925
236.10	111.199
236.31	142.268
236.53	204.082
236.75	484.314
236.96	992.857
237.18	955.556
237.40	626.415
237.61	-610.000
237.83	-2231.250
238.05	-1051.282
238.26	-1094.118
238.48	1941.176
238.70	150.847
238.91	130.180
239.13	113.216
239.35	81.443
239.56	156.349
239.78	990.909
240.00	106.593
240.21	68.254
240.43	38.434
240.65	48.168
240.86	54.190
241.08	31.510
241.30	14.334
241.51	25.701
241.73	37.243
241.95	47.638
242.16	51.791
242.38	49.229
242.60	40.534
242.81	35.651
243.03	28.668
243.25	26.104
243.46	35.367
243.68	54.817
243.90	62.612
244.11	48.454
244.33	42.031
244.55	39.856
244.76	38.847
244.98	42.831
245.19	44.729
245.41	38.566
245.63	43.117
245.84	40.492
246.06	25.993
246.28	24.227
246.49	24.042
246.71	22.438
246.92	20.088
247.14	22.475
247.36	21.792
247.57	22.082
247.79	24.604
248.01	21.301
248.22	21.190
248.44	21.150
248.65	16.473
248.87	17.940
249.09	20.320
249.30	25.775
249.52	29.917
249.74	26.698
249.95	29.582
250.17	33.367
250.38	29.412
250.60	32.664
250.82	40.596
251.03	43.146
251.25	53.156
251.46	52.233
251.68	46.499
251.90	36.499
252.11	35.327
252.33	27.993
252.54	21.846
252.76	16.251
252.98	19.683
253.19	20.963
253.41	34.476
253.62	31.563
253.84	32.111
254.06	31.691
254.27	29.412
254.49	34.207
254.70	44.487
254.92	53.611
255.14	57.222
255.35	56.793
255.57	54.378
255.78	45.554
256.00	34.492
256.21	28.614
256.43	34.240
256.65	31.151
256.86	27.866
257.08	26.087
257.29	25.451
257.51	29.689
257.72	24.804
257.94	16.345
258.16	12.796
258.37	20.742
258.59	19.478
258.80	15.901
259.02	19.656
259.23	21.883
259.45	21.508
259.66	19.767
259.88	19.627
260.10	23.645
260.31	22.949
260.53	26.509
260.74	22.495
260.96	25.058
261.17	27.457
261.39	25.901
261.60	22.101
261.82	24.335
262.04	25.368
262.25	28.123
262.47	21.682
262.68	26.482
262.90	24.071
263.11	34.847
263.33	28.192
263.54	16.836
263.76	24.405
263.97	32.800
264.19	38.531
264.40	31.934
264.62	29.001
264.84	22.379
265.05	25.691
265.27	20.375
265.48	12.294
265.70	21.343
265.91	27.221
266.13	24.910
266.34	25.806
266.56	19.955
266.77	24.983
266.99	18.567
267.20	30.752
267.42	29.745
267.63	31.852
267.85	30.244
268.06	22.761
268.28	23.513
268.49	23.961
268.71	26.112
268.92	31.093
269.14	21.150
269.35	21.619
269.57	24.462
269.78	23.492
270.00	19.185
270.21	20.538
270.43	29.611
270.64	31.258
270.86	34.089
271.07	29.613
271.29	23.653
271.50	29.028
271.72	35.986
271.93	29.305
272.15	22.386
272.36	20.344
272.58	15.583
272.79	6.447
273.01	-0.870
273.22	-7.941
273.44	-9.098
273.65	-2.275
273.87	-5.681
274.08	-17.662
274.30	-16.312
274.51	-10.853
274.73	-2.319
274.94	1.439
275.16	14.583
275.37	24.818
275.59	25.327
275.80	21.231
276.01	12.963
276.23	16.335
276.44	26.558
276.66	31.956
276.87	36.352
277.09	36.046
277.30	46.280
277.52	38.379
277.73	35.478
277.95	41.781
278.16	47.039
278.38	52.568
278.59	53.859
278.80	49.242
279.02	42.178
279.23	44.662
279.45	46.704
279.66	44.469
279.88	50.029
280.09	51.190
280.31	47.495
280.52	42.362
280.73	40.068
280.95	34.903
281.16	30.041
281.38	30.865
281.59	29.305
281.81	30.016
282.02	24.679
282.24	22.518
282.45	16.703
282.66	17.358
282.88	21.401
283.09	22.211
283.31	26.372
283.52	27.193
283.74	28.409
283.95	22.418
284.16	21.276
284.38	23.683
284.59	21.678
284.81	22.722
285.02	20.008
285.23	23.123
285.45	20.256
285.66	17.516
285.88	16.534
286.09	21.423
286.31	23.052
286.52	19.868
286.73	19.063
286.95	19.210
287.16	19.455
287.38	22.639
287.59	18.964
287.80	21.261
288.02	21.103
288.23	21.797
288.45	18.086
288.66	22.695
288.87	29.975
289.09	27.957
289.30	27.793
289.52	28.664
289.73	25.437
289.94	28.108
290.16	29.167
290.37	30.644
290.58	29.128
290.80	27.770
291.01	22.686
291.23	14.431
291.44	19.861
291.65	21.224
291.87	21.963
292.08	26.913
292.29	24.441
292.51	21.168
292.72	21.914
292.94	23.784
293.15	24.869
293.36	24.760
293.58	22.055
293.79	20.300
294.00	18.051
294.22	18.396
294.43	18.216
294.65	18.662
294.86	19.474
295.07	21.361
295.29	22.777
295.50	20.337
295.71	21.965
295.93	24.009
296.14	25.940
296.35	26.207
296.57	22.303
296.78	22.262
296.99	20.570
297.21	22.169
297.42	18.935
297.63	16.626
297.85	18.027
298.06	20.469
298.28	22.109
298.49	23.062
298.70	23.642
298.92	25.617
299.13	21.293
299.34	22.406
299.56	21.769
299.77	21.394
299.98	27.371
300.20	28.560
300.41	27.119
300.62	29.613
300.84	20.199
301.05	21.375
301.26	22.152
301.47	24.609
301.69	25.660
301.90	23.647
302.11	22.486
302.33	18.565
302.54	13.564
302.75	13.642
302.97	11.949
303.18	17.642
303.39	16.354
303.61	15.908
303.82	15.246
304.03	13.914
304.25	15.032
304.46	14.982
304.67	12.740
304.88	17.416
305.10	17.218
305.31	19.346
305.52	19.143
305.74	20.868
305.95	23.883
306.16	28.502
306.38	26.510
306.59	25.023
306.80	23.505
307.01	23.247
307.23	20.000
307.44	14.664
307.65	14.990
307.87	17.312
308.08	14.810
308.29	13.126
308.50	5.943
308.72	7.026
308.93	7.098
309.14	13.318
309.36	14.573
309.57	17.857
309.78	18.563
309.99	19.069
310.21	17.348
310.42	18.565
310.63	13.784
310.84	17.019
311.06	16.479
311.27	18.875
311.48	21.607
311.70	20.433
311.91	21.882
312.12	25.029
312.33	21.086
312.55	21.135
312.76	24.586
312.97	30.040
313.18	31.932
313.40	34.558
313.61	30.974
313.82	26.658
314.03	26.686
314.25	24.702
314.46	26.134
314.67	24.408
314.88	24.447
315.10	18.421
315.31	20.175
315.52	19.442
315.73	13.715
315.95	14.292
316.16	14.205
316.37	11.578
316.58	13.292
316.80	13.165
317.01	14.253
317.22	8.238
317.43	7.326
317.64	-0.327
317.86	4.112
318.07	7.218
318.28	13.927
318.49	20.051
318.71	27.666
318.92	23.581
319.13	24.271
319.34	27.282
319.55	33.431
319.77	39.250
319.98	44.655
320.19	34.844
320.40	35.937
320.62	32.699
320.83	27.165
321.04	27.077
321.25	24.754
321.46	26.437
321.68	26.712
321.89	23.208
322.10	20.189
322.31	11.869
322.52	17.717
322.74	16.985
322.95	15.478
323.16	19.159
323.37	15.789
323.58	19.725
323.80	16.496
324.01	15.174
324.22	19.707
324.43	23.455
324.64	26.839
324.86	24.486
325.07	26.012
325.28	25.992
325.49	24.342
325.70	23.302
325.91	16.300
326.13	18.811
326.34	20.469
326.55	14.893
326.76	13.525
326.97	14.968
327.18	16.057
327.40	15.212
327.61	15.428
327.82	18.069
328.03	19.491
328.24	27.304
328.45	25.569
328.67	22.437
328.88	25.993
329.09	26.556
329.30	30.288
329.51	26.027
329.72	25.459
329.94	27.639
330.15	26.663
330.36	27.126
330.57	27.196
330.78	25.910
330.99	29.117
331.21	27.268
331.42	28.906
331.63	26.849
331.84	33.437
332.05	35.721
332.26	39.368
332.47	42.079
332.69	43.617
332.90	40.925
333.11	43.601
333.32	46.629
333.53	50.806
333.74	50.134
333.95	50.685
334.16	47.969
334.38	45.723
334.59	42.416
334.80	36.922
335.01	36.911
335.22	40.519
335.43	40.887
335.64	39.330
335.85	40.394
336.07	39.542
336.28	40.834
336.49	40.901
336.70	41.990
336.91	42.193
337.12	44.459
337.33	45.896
337.54	45.206
337.76	43.615
337.97	39.799
338.18	38.968
338.39	38.973
338.60	38.826
338.81	36.335
339.02	36.466
339.23	33.358
339.44	33.007
339.65	33.710
339.87	28.807
340.08	27.416
340.29	25.837
340.50	27.334
340.71	24.750
340.92	26.278
341.13	28.807
341.34	28.267
341.55	30.809
341.76	30.234
341.97	27.528
342.19	30.063
342.40	31.875
342.61	31.218
342.82	26.267
343.03	27.000
343.24	23.513
343.45	21.663
343.66	18.867
343.87	18.712
344.08	16.082
344.29	20.983
344.50	14.194
344.71	16.282
344.93	22.723
345.14	22.948
345.35	22.656
345.56	20.517
345.77	20.019
345.98	20.632
346.19	15.083
346.40	15.166
346.61	9.250
346.82	14.099
347.03	11.347
347.24	10.130
347.45	8.971
347.66	5.801
347.87	8.882
348.08	6.627
348.29	7.442
348.50	13.524
348.71	15.043
348.93	20.007
349.14	21.117
349.35	22.058
349.56	20.741
349.77	22.708
349.98	25.618
350.19	26.081
350.40	27.625
350.61	27.922
350.82	30.665
351.03	32.502
351.24	30.722
351.45	30.842
351.66	29.069
351.87	25.695
352.08	25.570
352.29	29.061
352.50	28.235
352.71	28.697
352.92	27.371
353.13	24.001
353.34	23.306
353.55	23.849
353.76	23.959
353.97	23.988
354.18	26.325
354.39	24.738
354.60	22.299
354.81	20.356
355.02	20.578
355.23	23.032
355.44	22.233
355.65	21.727
355.86	20.415
356.07	19.944
356.28	20.491
356.49	22.564
356.70	22.494
356.91	22.612
357.12	24.589
357.33	23.768
357.54	22.905
357.75	23.008
357.96	22.178
358.17	22.454
358.38	21.080
358.59	21.781
358.80	20.899
359.01	22.123
359.22	22.411
359.43	21.331
359.64	21.069
359.85	19.593
360.06	20.184
360.27	21.850
360.48	20.319
360.69	20.072
360.90	20.774
361.11	19.693
361.32	17.571
361.53	15.053
361.74	15.590
361.95	14.943
362.16	15.101
362.37	13.347
362.58	14.793
362.79	15.650
362.99	17.499
363.20	14.688
363.41	16.113
363.62	18.210
363.83	20.642
364.04	21.758
364.25	22.074
364.46	23.143
364.67	26.790
364.88	23.441
365.09	22.256
365.30	21.805
365.51	23.302
365.72	22.830
365.93	20.756
366.14	22.334
366.35	22.011
366.56	20.718
366.76	20.765
366.97	21.061
367.18	21.345
367.39	23.692
367.60	23.340
367.81	21.471
368.02	19.200
368.23	20.957
368.44	18.842
368.65	18.530
368.86	19.850
369.07	19.644
369.28	17.678
369.48	16.952
369.69	14.098
369.90	12.211
370.11	13.750
370.32	14.245
370.53	13.249
370.74	12.975
370.95	12.859
371.16	12.483
371.37	12.472
371.58	12.609
371.78	14.125
371.99	15.582
372.20	16.177
372.41	16.111
372.62	16.503
372.83	19.956
373.04	22.287
373.25	22.391
373.46	24.286
373.67	23.360
373.87	21.740
374.08	21.940
374.29	22.567
374.50	22.860
374.71	24.304
374.92	26.787
375.13	23.650
375.34	21.434
375.55	20.000
375.75	17.978
375.96	19.215
376.17	21.427
376.38	18.366
376.59	16.869
376.80	19.796
377.01	18.623
377.21	15.187
377.42	15.092
377.63	14.687
377.84	14.964
378.05	15.475
378.26	16.343
378.47	15.669
378.68	17.558
378.88	20.656
379.09	20.509
379.30	21.195
379.51	21.120
379.72	21.947
379.93	21.992
380.14	22.806
380.34	23.184
380.55	21.445
380.76	22.708
380.97	22.109
381.18	21.060
381.39	20.231
381.59	20.803
381.80	24.752
382.01	24.036
382.22	23.674
382.43	23.421
382.64	23.146
382.84	25.135
383.05	25.721
383.26	26.347
383.47	25.336
383.68	23.283
383.89	21.539
384.09	18.416
384.30	19.191
384.51	17.446
384.72	18.313
384.93	17.783
385.14	16.587
385.34	14.329
385.55	15.372
385.76	15.684
385.97	15.341
386.18	17.937
386.38	19.211
386.59	18.350
386.80	19.222
387.01	18.519
387.22	19.040
387.42	18.583
387.63	17.697
387.84	15.375
388.05	14.998
388.26	14.657
388.46	12.994
388.67	13.970
388.88	14.692
389.09	14.948
389.30	15.618
389.50	15.157
389.71	17.451
389.92	18.724
390.13	18.777
390.34	17.267
390.54	17.513
390.75	16.682
390.96	15.514
391.17	15.107
391.37	14.953
391.58	15.062
391.79	15.793
392.00	12.268
392.21	12.049
392.41	11.909
392.62	12.552
392.83	12.615
393.04	13.192
393.24	13.455
393.45	16.225
393.66	18.017
393.87	16.612
394.07	14.802
394.28	18.071
394.49	17.675
394.70	16.897
394.91	16.358
395.11	17.993
395.32	17.506
395.53	17.563
395.74	14.399
395.94	12.311
396.15	11.962
396.36	13.745
396.57	12.945
396.77	15.799
396.98	17.050
397.19	16.652
397.40	15.307
397.60	15.734
397.81	15.826
398.02	17.427
398.22	17.764
398.43	16.957
398.64	17.137
398.85	15.007
399.05	13.915
399.26	13.034
399.47	15.096
399.68	14.844
399.88	14.787
400.09	13.938
400.30	12.465
400.50	11.975
400.71	14.601
400.92	13.382
401.13	15.433
401.33	14.580
401.54	15.850
401.75	14.542
401.95	15.603
402.16	14.982
402.37	15.899
402.58	15.131
402.78	16.583
402.99	15.986
403.20	15.302
403.40	13.520
403.61	14.062
403.82	13.358
404.03	13.158
404.23	13.971
404.44	15.577
404.65	14.636
404.85	14.238
405.06	12.685
405.27	12.645
405.47	15.190
405.68	16.252
405.89	15.485
406.09	16.439
406.30	18.044
406.51	18.124
406.71	17.389
406.92	17.172
407.13	19.833
407.34	22.413
407.54	23.276
407.75	22.464
407.96	21.896
408.16	22.496
408.37	20.897
408.58	19.782
408.78	18.883
408.99	18.985
409.20	20.013
409.40	17.233
409.61	15.641
409.82	14.786
410.02	12.470
410.23	12.635
410.44	13.254
410.64	15.092
410.85	17.525
411.05	16.527
411.26	16.342
411.47	14.580
411.67	17.248
411.88	17.475
412.09	17.957
412.29	20.036
412.50	20.887
412.71	20.216
412.91	19.710
413.12	17.110
413.33	18.389
413.53	17.828
413.74	19.435
413.94	17.634
414.15	16.504
414.36	15.038
414.56	14.177
414.77	14.671
414.98	14.246
415.18	12.253
415.39	12.810
415.59	10.577
415.80	10.518
416.01	10.505
416.21	10.933
416.42	11.083
416.63	11.593
416.83	10.980
417.04	9.894
417.24	9.488
417.45	11.253
417.66	11.559
417.86	12.565
418.07	12.568
418.27	11.729
418.48	10.731
418.69	11.561
418.89	13.081
419.10	13.644
419.30	14.084
419.51	14.992
419.72	15.011
419.92	16.078
420.13	16.733
420.33	17.592
420.54	17.054
420.75	17.766
420.95	17.632
421.16	16.827
421.36	16.780
421.57	17.062
421.78	17.620
421.98	16.126
422.19	14.820
422.39	14.045
422.60	13.032
422.80	13.609
423.01	13.812
423.22	12.494
423.42	12.360
423.63	12.692
423.83	11.993
424.04	11.384
424.24	13.039
424.45	13.728
424.66	13.962
424.86	14.344
425.07	14.290
425.27	13.694
425.48	14.753
425.68	13.986
425.89	13.401
426.10	13.525
426.30	13.316
426.51	11.514
426.71	10.221
426.92	10.156
427.12	9.757
427.33	10.050
427.53	10.221
427.74	10.578
427.94	12.388
428.15	13.389
428.36	13.445
428.56	13.541
428.77	15.852
428.97	16.385
429.18	15.881
429.38	16.731
429.59	16.553
429.79	16.954
430.00	17.758
430.20	18.578
430.41	16.846
430.61	17.122
430.82	18.320
431.02	18.689
431.23	18.221
431.43	18.609
431.64	17.823
431.84	18.540
432.05	19.523
432.26	19.440
432.46	16.658
432.67	18.211
432.87	17.679
433.08	16.362
433.28	15.443
433.49	15.463
433.69	15.631
433.90	15.239
434.10	14.997
434.31	14.514
434.51	14.154
434.72	15.415
434.92	15.549
435.13	16.711
435.33	17.031
435.54	17.744
435.74	18.760
435.95	19.498
436.15	20.926
436.36	20.947
436.56	21.165
436.76	21.166
436.97	21.695
437.17	21.592
437.38	21.063
437.58	21.556
437.79	21.327
437.99	20.831
438.20	21.314
438.40	21.473
438.61	21.660
438.81	20.793
439.02	20.486
439.22	19.581
439.43	18.896
439.63	18.322
439.84	17.707
440.04	17.479
440.24	16.834
440.45	15.554
440.65	14.879
440.86	14.584
441.06	15.212
441.27	15.544
441.47	16.589
441.68	16.815
441.88	17.190
442.09	17.205
442.29	17.742
442.49	18.197
442.70	18.893
442.90	18.751
443.11	19.430
443.31	19.116
443.52	18.963
443.72	17.520
443.93	17.341
444.13	17.183
444.33	16.842
444.54	16.121
444.74	16.700
444.95	16.592
445.15	15.945
445.36	14.635
445.56	14.322
445.76	13.835
445.97	13.447
446.17	13.362
446.38	13.353
446.58	13.269
446.79	13.142
446.99	12.294
447.19	12.435
447.40	13.121
447.60	13.857
447.81	14.654
448.01	14.869
448.21	14.786
448.42	14.040
448.62	13.634
448.83	13.834
449.03	13.811
449.23	14.508
449.44	14.295
449.64	14.162
449.85	13.468
450.05	13.274
450.25	13.986
450.46	14.958
450.66	16.110
450.87	17.008
451.07	17.274
451.27	17.714
451.48	18.421
451.68	18.682
451.88	19.159
452.09	20.085
452.29	20.137
452.50	20.336
452.70	20.037
452.90	19.333
453.11	18.873
453.31	18.964
453.51	18.794
453.72	19.161
453.92	18.035
454.13	17.955
454.33	17.831
454.53	18.661
454.74	18.182
454.94	18.255
455.14	18.802
455.35	19.192
455.55	18.251
455.75	18.464
455.96	16.898
456.16	17.494
456.37	16.934
456.57	16.211
456.77	14.900
456.98	13.754
457.18	14.118
457.38	14.116
457.59	13.209
457.79	12.353
457.99	11.907
458.20	11.986
458.40	11.594
458.60	12.122
458.81	12.456
459.01	12.202
459.21	13.014
459.42	13.220
459.62	13.309
459.82	13.751
460.03	15.081
460.23	15.764
460.43	15.699
460.64	16.329
460.84	15.985
461.04	16.472
461.25	16.842
461.45	16.751
461.65	15.893
461.86	15.418
462.06	14.901
462.26	13.638
462.46	14.098
462.67	13.759
462.87	13.444
463.07	14.330
463.28	14.261
463.48	14.304
463.68	14.567
463.89	15.824
464.09	16.381
464.29	16.326
464.49	17.632
464.70	17.476
464.90	18.128
465.10	18.718
465.31	17.947
465.51	16.717
465.71	16.830
465.92	15.627
466.12	15.732
466.32	16.685
466.52	17.843
466.73	17.931
466.93	17.187
467.13	16.539
467.33	15.312
467.54	16.575
467.74	16.944
467.94	16.602
468.15	17.459
468.35	16.886
468.55	16.884
468.75	16.292
468.96	16.156
469.16	16.806
469.36	17.397
469.56	17.677
469.77	17.378
469.97	17.365
470.17	16.010
470.37	16.025
470.58	15.652
470.78	14.167
470.98	14.670
471.18	15.354
471.39	14.761
471.59	14.764
471.79	14.298
471.99	13.330
472.20	13.943
472.40	14.872
472.60	15.645
472.80	14.993
473.01	15.896
473.21	15.368
473.41	15.647
473.61	15.233
473.82	15.422
474.02	15.806
474.22	16.443
474.42	15.589
474.63	15.820
474.83	15.397
475.03	17.042
475.23	17.807
475.43	17.285
475.64	14.676
475.84	14.733
476.04	13.923
476.24	14.786
476.44	13.235
476.65	13.473
476.85	13.614
477.05	13.397
477.25	11.493
477.46	10.520
477.66	11.592
477.86	13.071
478.06	13.170
478.26	14.207
478.47	14.037
478.67	15.936
478.87	15.489
479.07	15.224
479.27	14.630
479.48	15.138
479.68	14.898
479.88	14.065
480.08	13.487
480.28	14.012
480.48	13.487
480.69	12.618
480.89	11.783
481.09	12.545
481.29	12.526
481.49	12.539
481.70	13.242
481.90	13.474
482.10	13.695
482.30	14.274
482.50	13.830
482.70	13.889
482.91	14.268
483.11	14.452
483.31	14.369
483.51	14.302
483.71	14.174
483.91	14.118
484.12	13.968
484.32	13.998
484.52	13.955
484.72	13.618
484.92	13.500
485.12	13.613
485.32	13.298
485.53	13.136
485.73	13.332
485.93	13.558
486.13	13.451
486.33	13.357
486.53	13.585
486.73	13.007
486.94	13.594
487.14	13.645
487.34	13.703
487.54	13.522
487.74	13.325
487.94	13.160
488.14	13.176
488.35	13.519
488.55	13.302
488.75	12.958
488.95	13.546
489.15	13.093
489.35	13.252
489.55	12.987
489.75	13.366
489.96	13.488
490.16	13.125
490.36	13.040
490.56	12.505
490.76	13.400
490.96	13.924
491.16	13.762
491.36	14.056
491.56	14.643
491.77	14.600
491.97	14.694
492.17	15.115
492.37	15.601
492.57	15.838
492.77	16.614
492.97	16.376
493.17	16.196
493.37	16.195
493.57	16.539
493.78	15.986
493.98	16.225
494.18	15.986
494.38	15.863
494.58	14.748
494.78	14.468
494.98	15.042
495.18	15.374
495.38	15.463
495.58	16.422
495.78	16.225
495.98	15.811
496.19	16.053
496.39	16.062
496.59	16.424
496.79	17.860
496.99	17.993
497.19	16.953
497.39	17.059
497.59	16.324
497.79	15.255
497.99	15.342
498.19	15.964
498.39	15.590
498.59	15.145
498.79	14.801
498.99	14.015
499.19	14.255
499.40	14.080
499.60	13.744
499.80	14.193
500.00	14.892
500.20	14.960
500.40	14.381
500.60	14.851
500.80	16.217
501.00	16.715
501.20	17.012
501.40	16.906
501.60	16.417
501.80	17.344
502.00	18.602
502.20	17.861
502.40	17.322
502.60	17.672
502.80	17.988
503.00	17.210
503.20	16.864
503.40	15.613
503.60	15.918
503.80	15.996
504.00	15.344
504.20	13.858
504.40	14.525
504.60	14.974
504.80	14.632
505.00	14.127
505.20	14.437
505.40	14.505
505.60	15.696
505.80	14.897
506.00	15.594
506.20	15.302
506.40	15.777
506.60	15.729
506.80	16.548
507.00	17.384
507.20	16.688
507.40	16.079
507.60	15.621
507.80	15.617
508.00	16.089
508.20	16.478
508.40	16.152
508.60	16.516
508.80	15.819
509.00	15.108
509.20	14.600
509.40	15.209
509.60	16.087
509.80	15.673
510.00	16.163
510.20	16.031
510.40	15.394
510.60	15.297
510.80	14.825
511.00	15.960
511.20	16.101
511.40	16.384
511.60	17.258
511.80	16.899
512.00	17.503
512.20	17.388
512.40	17.733
512.60	17.405
512.80	17.822
513.00	17.644
513.20	16.871
513.40	16.352
513.60	16.046
513.80	15.008
513.99	14.796
514.19	15.538
514.39	15.311
514.59	14.724
514.79	15.474
514.99	14.914
515.19	14.846
515.39	14.854
515.59	16.006
515.79	16.917
515.99	16.654
516.19	16.240
516.39	15.317
516.59	14.908
516.79	14.433
516.98	13.418
517.18	14.425
517.38	14.525
517.58	14.756
517.78	14.175
517.98	13.702
518.18	13.920
518.38	14.185
518.58	14.919
518.78	15.243
518.98	15.728
519.18	17.007
519.37	16.905
519.57	17.016
519.77	16.804
519.97	16.433
520.17	15.968
520.37	16.780
520.57	17.446
520.77	17.042
520.97	16.980
521.17	17.478
521.36	16.673
521.56	16.658
521.76	17.805
521.96	18.461
522.16	18.960
522.36	20.121
522.56	19.296
522.76	18.413
522.96	18.350
523.15	18.760
523.35	19.237
523.55	19.565
523.75	19.722
523.95	18.648
524.15	17.884
524.35	17.886
524.55	17.513
524.74	17.222
524.94	17.391
525.14	17.368
525.34	17.874
525.54	17.665
525.74	17.098
525.94	17.053
526.13	17.153
526.33	17.515
526.53	17.106
526.73	16.814
526.93	17.277
527.13	17.397
527.33	17.046
527.52	16.637
527.72	16.159
527.92	16.124
528.12	15.778
528.32	15.833
528.52	15.723
528.71	16.141
528.91	16.212
529.11	15.896
529.31	16.047
529.51	16.246
529.71	16.110
529.90	16.259
530.10	16.445
530.30	16.562
530.50	16.892
530.70	17.246
530.90	17.141
531.09	17.349
531.29	17.214
531.49	17.343
531.69	17.125
531.89	17.638
532.09	17.553
532.28	17.383
532.48	17.851
532.68	17.441
532.88	17.128
533.08	16.871
533.27	16.723
533.47	17.136
533.67	16.700
533.87	17.125
534.07	16.753
534.26	16.894
534.46	16.875
534.66	16.392
534.86	16.325
535.06	16.550
535.25	17.048
535.45	16.996
535.65	17.026
535.85	17.343
536.04	16.974
536.24	17.241
536.44	17.002
536.64	17.382
536.84	17.556
537.03	17.585
537.23	17.519
537.43	17.847
537.63	17.814
537.82	17.437
538.02	17.470
538.22	17.464
538.42	17.237
538.62	17.749
538.81	17.797
539.01	18.121
539.21	18.651
539.41	17.828
539.60	17.540
539.80	17.949
540.00	18.269
540.20	17.878
540.39	18.692
540.59	18.655
540.79	17.963
540.99	18.148
541.18	18.101
541.38	18.166
541.58	18.386
541.78	18.502
541.97	18.109
542.17	18.194
542.37	18.451
542.57	18.262
542.76	18.226
542.96	18.756
543.16	18.857
543.36	19.146
543.55	18.770
543.75	18.790
543.95	18.722
544.14	19.285
544.34	19.185
544.54	18.941
544.74	18.428
544.93	18.753
545.13	18.372
545.33	18.164
545.52	17.308
545.72	17.395
545.92	18.233
546.12	17.824
546.31	17.444
546.51	17.260
546.71	17.432
546.90	17.802
547.10	17.787
547.30	18.281
547.49	18.046
547.69	18.358
547.89	18.310
548.09	17.692
548.28	18.160
548.48	18.327
548.68	18.368
548.87	18.368
549.07	18.846
549.27	18.849
549.46	18.628
549.66	18.290
549.86	18.646
550.05	19.712
550.25	20.173
550.45	19.668
550.64	19.894
550.84	20.596
551.04	21.914
551.24	21.705
551.43	21.380
551.63	20.986
551.83	20.531
552.02	20.336
552.22	18.875
552.41	19.176
552.61	19.293
552.81	20.075
553.00	20.274
553.20	19.505
553.40	19.469
553.59	19.997
553.79	20.509
553.99	21.676
554.18	20.864
554.38	21.178
554.58	20.049
554.77	20.414
554.97	19.547
555.17	19.935
555.36	19.473
555.56	19.893
555.76	19.362
555.95	19.245
556.15	19.394
556.34	19.991
556.54	20.465
556.74	21.500
556.93	22.098
557.13	22.343
557.33	21.398
557.52	22.211
557.72	21.644
557.91	21.111
558.11	20.980
558.31	19.815
558.50	20.698
558.70	21.667
558.90	21.464
559.09	21.026
559.29	21.176
559.48	21.735
559.68	20.278
559.88	20.006
560.07	20.732
560.27	21.628
560.46	22.966
560.66	22.674
560.86	23.048
561.05	22.267
561.25	22.389
561.44	22.075
561.64	21.432
561.84	22.729
562.03	22.787
562.23	22.396
562.42	22.672
562.62	22.180
562.81	22.856
563.01	21.560
563.21	23.003
563.40	22.603
563.60	22.364
563.79	23.831
563.99	24.334
564.18	23.733
564.38	24.231
564.58	23.130
564.77	23.089
564.97	21.620
565.16	21.513
565.36	21.075
565.55	21.560
565.75	21.489
565.95	20.441
566.14	20.203
566.34	21.142
566.53	20.866
566.73	21.384
566.92	21.524
567.12	21.601
567.31	21.843
567.51	21.960
567.71	21.443
567.90	21.081
568.10	21.290
568.29	21.021
568.49	20.369
568.68	20.403
568.88	20.456
569.07	21.349
569.27	22.890
569.46	22.555
569.66	22.611
569.85	23.075
570.05	24.329
570.24	24.402
570.44	23.988
570.64	24.268
570.83	24.434
571.03	24.212
571.22	23.024
571.42	22.373
571.61	22.302
571.81	21.490
572.00	20.848
572.20	20.573
572.39	20.393
572.59	20.319
572.78	20.510
572.98	20.562
573.17	20.266
573.37	20.102
573.56	20.188
573.76	20.309
573.95	20.907
574.15	21.171
574.34	21.582
574.54	21.657
574.73	22.203
574.93	21.423
575.12	21.794
575.32	21.536
575.51	22.174
575.71	22.224
575.90	22.655
576.10	21.653
576.29	21.527
576.49	20.795
576.68	20.955
576.87	20.472
577.07	21.025
577.26	20.266
577.46	20.159
577.65	19.713
577.85	19.487
578.04	19.123
578.24	20.350
578.43	21.158
578.63	22.001
578.82	21.636
579.02	21.949
579.21	22.496
579.41	24.052
579.60	25.437
579.79	26.117
579.99	26.204
580.18	26.838
580.38	26.838
580.57	25.681
580.77	24.903
580.96	25.269
581.16	24.552
581.35	23.910
581.54	22.618
581.74	21.820
581.93	22.010
582.13	23.135
582.32	22.686
582.52	22.158
582.71	22.908
582.90	23.871
583.10	24.899
583.29	25.203
583.49	26.350
583.68	26.163
583.88	26.864
584.07	26.119
584.26	25.168
584.46	25.050
584.65	24.503
584.85	24.137
585.04	24.410
585.23	22.260
585.43	22.566
585.62	21.870
585.82	22.127
586.01	20.131
586.20	20.720
586.40	20.508
586.59	20.600
586.79	21.751
586.98	22.244
587.17	20.975
587.37	21.219
587.56	21.933
587.76	21.661
587.95	21.769
588.14	23.442
588.34	23.217
588.53	23.288
588.73	23.848
588.92	23.744
589.11	24.088
589.31	24.438
589.50	24.969
589.69	24.008
589.89	24.753
590.08	24.442
590.28	24.535
590.47	24.523
590.66	25.379
590.86	24.454
591.05	24.792
591.24	24.600
591.44	23.619
591.63	23.173
591.82	23.705
592.02	22.889
592.21	24.144
592.41	23.928
592.60	24.192
592.79	23.820
592.99	24.031
593.18	23.079
593.37	22.662
593.57	24.188
593.76	23.957
593.95	24.447
594.15	25.073
594.34	24.313
594.53	24.442
594.73	24.064
594.92	23.611
595.11	22.852
595.31	23.028
595.50	22.086
595.69	20.917
595.89	21.688
596.08	21.032
596.27	21.028
596.47	21.285
596.66	20.832
596.85	20.622
597.05	21.291
597.24	22.165
597.43	22.179
597.62	23.198
597.82	23.507
598.01	23.980
598.20	23.925
598.40	23.882
598.59	23.183
598.78	24.421
598.98	25.177
599.17	24.487
599.36	23.569
599.55	24.134
599.75	24.561
599.94	24.625
600.13	23.406
600.33	24.219
600.52	24.033
600.71	24.386
600.91	23.348
601.10	22.644
601.29	22.903
601.48	23.873
601.68	24.391
601.87	23.313
602.06	22.898
602.25	23.291
602.45	23.636
602.64	23.421
602.83	23.574
603.03	23.194
603.22	23.454
603.41	23.246
603.60	23.838
603.80	23.721
603.99	23.438
604.18	23.791
604.37	24.043
604.57	23.556
604.76	23.734
604.95	22.672
605.14	22.941
605.34	22.862
605.53	22.587
605.72	22.675
605.91	22.097
606.11	22.245
606.30	22.639
606.49	23.396
606.68	22.823
606.88	22.829
607.07	23.823
607.26	23.364
607.45	23.035
607.65	23.237
607.84	23.008
608.03	22.457
608.22	22.775
608.41	22.101
608.61	20.878
608.80	21.042
608.99	20.173
609.18	20.656
609.38	21.216
609.57	22.783
609.76	22.389
609.95	21.465
610.14	21.771
610.34	22.512
610.53	23.096
610.72	22.647
610.91	23.344
611.10	23.829
611.30	24.385
611.49	24.945
611.68	25.183
611.87	26.322
612.06	26.968
612.26	27.527
612.45	26.895
612.64	26.888
612.83	27.924
613.02	28.805
613.22	28.411
613.41	26.557
613.60	25.895
613.79	24.294
613.98	24.105
614.17	23.562
614.37	23.819
614.56	24.747
614.75	25.137
614.94	24.234
615.13	21.478
615.32	22.515
615.52	24.321
615.71	23.128
615.90	22.500
616.09	22.716
616.28	23.201
616.47	21.969
616.67	22.482
616.86	21.244
617.05	21.561
617.24	21.788
617.43	22.196
617.62	20.867
617.82	20.926
618.01	21.554
618.20	20.502
618.39	22.045
618.58	23.632
618.77	21.685
618.96	21.259
619.16	22.189
619.35	22.772
619.54	23.127
619.73	23.603
619.92	24.870
620.11	25.117
620.30	26.069
620.49	23.382
620.69	22.381
620.88	22.098
621.07	22.303
621.26	23.304
621.45	23.948
621.64	21.943
621.83	22.012
622.02	22.000
622.22	21.008
622.41	19.894
622.60	20.458
622.79	20.400
622.98	21.737
623.17	21.720
623.36	19.697
623.55	18.220
623.74	19.313
623.93	17.200
624.13	17.212
624.32	16.725
624.51	17.313
624.70	17.516
624.89	18.010
625.08	16.482
625.27	17.828
625.46	17.218
625.65	17.276
625.84	17.266
626.03	19.570
626.23	19.454
626.42	20.635
626.61	20.847
626.80	20.861
626.99	20.245
627.18	20.940
627.37	19.964
627.56	20.581
627.75	20.593
627.94	20.480
628.13	19.755
628.32	18.205
628.51	17.677
628.70	17.968
628.89	17.441
629.09	17.827
629.28	17.746
629.47	18.381
629.66	19.516
629.85	19.803
630.04	19.023
630.23	19.507
630.42	20.535
630.61	18.691
630.80	17.849
630.99	17.945
631.18	17.478
631.37	17.805
631.56	17.863
631.75	16.126
631.94	17.743
632.13	19.168
632.32	17.298
632.51	18.119
632.70	20.838
632.89	22.484
633.08	23.766
633.27	25.054
633.46	25.679
633.65	25.349
633.84	25.999
634.03	25.834
634.22	25.397
634.41	26.672
634.60	26.165
634.79	24.384
634.99	23.038
635.18	22.627
635.37	22.195
635.56	20.243
635.75	19.455
635.94	18.659
636.13	18.174
636.32	17.811
636.51	17.267
636.69	17.560
636.88	19.209
637.07	19.257
637.26	17.931
637.45	18.421
637.64	19.823
637.83	20.259
638.02	19.577
638.21	20.566
638.40	21.612
638.59	22.074
638.78	24.149
638.97	24.240
639.16	23.275
639.35	24.969
639.54	24.565
639.73	25.000
639.92	25.954
640.11	25.889
640.30	24.220
640.49	23.604
640.68	24.272
640.87	22.553
641.06	21.805
641.25	24.153
641.44	22.891
641.63	22.925
641.82	21.942
642.01	22.440
642.20	22.436
642.39	22.674
642.58	21.415
642.76	21.046
642.95	19.275
643.14	20.468
643.33	18.674
643.52	18.649
643.71	16.612
643.90	18.488
644.09	17.130
644.28	17.182
644.47	17.004
644.66	18.228
644.85	20.436
645.04	21.355
645.23	18.170
645.41	20.832
645.60	22.281
645.79	22.841
645.98	22.055
646.17	22.078
646.36	23.374
646.55	22.977
646.74	23.242
646.93	20.580
647.12	19.479
647.31	22.243
647.49	19.165
647.68	18.810
647.87	19.654
648.06	20.477
648.25	19.492
648.44	21.570
648.63	22.930
648.82	24.927
649.01	25.297
649.20	24.250
649.38	21.711
649.57	21.674
649.76	21.827
649.95	21.380
650.14	19.347
650.33	20.700
650.52	18.225
650.71	18.108
650.89	16.193
651.08	15.307
651.27	19.069
651.46	20.832
651.65	21.147
651.84	20.621
652.03	21.076
652.22	22.410
652.40	22.785
652.59	23.262
652.78	22.314
652.97	23.029
653.16	25.090
653.35	22.825
653.54	22.141
653.72	21.911
653.91	22.516
654.10	24.096
654.29	24.907
654.48	24.524
654.67	24.363
654.85	23.941
655.04	23.807
655.23	23.419
655.42	24.770
655.61	23.859
655.80	22.340
655.98	21.148
656.17	20.958
656.36	20.537
656.55	19.530
656.74	20.105
656.93	18.811
657.11	17.562
657.30	16.842
657.49	14.976
657.68	15.993
657.87	17.029
658.06	16.844
658.24	15.878
658.43	14.600
658.62	16.156
658.81	15.661
659.00	17.132
659.18	16.741
659.37	17.082
659.56	17.533
659.75	16.877
659.94	17.240
660.12	18.468
660.31	18.619
660.50	19.237
660.69	18.841
660.88	19.318
661.06	18.813
661.25	20.203
661.44	20.249
661.63	20.625
661.81	22.684
662.00	23.476
662.19	22.647
662.38	22.799
662.57	23.718
662.75	23.434
662.94	23.382
663.13	23.552
663.32	22.734
663.50	24.126
663.69	22.509
663.88	21.169
664.07	21.560
664.25	22.166
664.44	21.045
664.63	18.163
664.82	17.507
665.00	16.285
665.19	14.309
665.38	16.345
665.57	14.621
665.75	17.924
665.94	18.595
666.13	17.133
666.32	17.746
666.50	17.838
666.69	18.247
666.88	18.304
667.07	19.418
667.25	22.511
667.44	21.047
667.63	22.312
667.82	20.482
668.00	19.770
668.19	22.789
668.38	22.615
668.56	21.619
668.75	22.486
668.94	22.787
669.13	21.594
669.31	21.174
669.50	23.178
669.69	21.251
669.88	20.891
670.06	18.608
670.25	18.407
670.44	16.870
670.62	17.395
670.81	17.429
671.00	16.667
671.18	18.450
671.37	20.405
671.56	16.590
671.75	17.769
671.93	19.198
672.12	21.675
672.31	19.734
672.49	21.276
672.68	23.021
672.87	22.431
673.05	24.080
673.24	23.166
673.43	21.861
673.61	23.542
673.80	23.006
673.99	22.340
674.17	24.333
674.36	25.131
674.55	23.744
674.73	23.943
674.92	23.373
675.11	23.154
675.29	21.842
675.48	21.156
675.67	20.059
675.85	19.790
676.04	19.909
676.23	17.511
676.41	15.731
676.60	16.556
676.79	17.984
676.97	19.242
677.16	16.998
677.35	18.631
677.53	18.942
677.72	18.674
677.91	18.418
678.09	19.378
678.28	21.044
678.47	20.071
678.65	19.822
678.84	17.800
679.02	17.590
679.21	20.404
679.40	19.464
679.58	19.318
679.77	21.210
679.96	23.488
680.14	22.106
680.33	21.600
680.51	22.054
680.70	21.727
680.89	21.741
681.07	21.813
681.26	20.200
681.44	20.628
681.63	20.409
681.82	20.924
682.00	20.867
682.19	22.121
682.38	19.848
682.56	20.546
682.75	22.607
682.93	23.139
683.12	23.116
683.31	22.242
683.49	22.569
683.68	22.359
683.86	20.536
684.05	20.523
684.23	19.170
684.42	21.148
684.61	22.500
684.79	19.445
684.98	19.914
685.16	19.923
685.35	19.883
685.54	17.829
685.72	17.288
685.91	16.692
686.09	16.292
686.28	17.632
686.46	18.579
686.65	18.014
686.83	18.197
687.02	17.835
687.21	18.885
687.39	21.464
687.58	23.552
687.76	23.987
687.95	24.385
688.13	21.487
688.32	20.981
688.50	20.134
688.69	20.492
688.88	23.218
689.06	21.343
689.25	20.325
689.43	20.860
689.62	20.787
689.80	19.707
689.99	18.747
690.17	19.608
690.36	19.788
690.54	17.705
690.73	16.823
690.91	16.338
691.10	18.355
691.29	17.391
691.47	18.886
691.66	19.872
691.84	22.314
692.03	23.001
692.21	20.823
692.40	22.072
692.58	26.225
692.77	26.192
692.95	24.856
693.14	26.609
693.32	27.023
693.51	25.879
693.69	24.643
693.88	25.544
694.06	26.616
694.25	31.105
694.43	30.713
694.62	27.003
694.80	25.769
694.99	26.727
695.17	24.769
695.36	26.373
695.54	22.841
695.73	23.555
695.91	22.125
696.10	20.643
696.28	19.685
696.47	18.352
696.65	21.484
696.84	23.001
697.02	24.230
697.20	24.277
697.39	22.087
697.57	26.265
697.76	25.193
697.94	23.620
698.13	25.031
698.31	24.080
698.50	22.884
698.68	20.265
698.87	18.674
699.05	16.578
699.24	16.520
699.42	18.824
699.60	16.296
699.79	17.465
699.97	18.729
700.16	17.535
700.34	17.102
700.53	17.616
700.71	19.517
700.90	20.839
701.08	20.968
701.26	20.755
701.45	19.553
701.63	20.847
701.82	16.519
702.00	14.430
702.19	16.574
702.37	17.733
702.55	16.644
702.74	17.900
702.92	18.548
703.11	17.231
703.29	16.341
703.48	18.752
703.66	22.005
703.84	27.732
704.03	30.085
704.21	29.281
704.40	24.785
704.58	26.756
704.76	23.551
704.95	20.393
705.13	21.707
705.32	22.530
705.50	18.771
705.68	12.918
705.87	11.984
706.05	10.483
706.24	9.716
706.42	13.512
706.60	13.495
706.79	15.881
706.97	20.563
707.15	20.601
707.34	21.445
707.52	25.349
707.71	29.405
707.89	27.739
708.07	29.650
708.26	27.983
708.44	29.902
708.62	30.265
708.81	30.941
708.99	28.083
709.18	29.054
709.36	27.887
709.54	26.497
709.73	28.296
709.91	33.652
710.09	31.726
710.28	32.914
710.46	30.096
710.64	29.841
710.83	27.256
711.01	28.500
711.19	27.161
711.38	28.332
711.56	24.004
711.74	20.371
711.93	18.187
712.11	15.399
712.30	15.478
712.48	14.638
712.66	14.851
712.85	14.619
713.03	11.333
713.21	13.655
713.39	12.406
713.58	16.877
713.76	16.547
713.94	16.092
714.13	21.931
714.31	23.134
714.49	20.348
714.68	21.480
714.86	22.904
715.04	27.940
715.23	27.404
715.41	25.104
715.59	23.909
715.78	24.315
715.96	23.822
716.14	20.566
716.32	22.477
716.51	26.941
716.69	28.853
716.87	26.511
717.06	23.197
717.24	23.970
717.42	24.242
717.61	25.775
717.79	24.928
717.97	25.690
718.15	27.351
718.34	26.515
718.52	27.358
718.70	25.069
718.88	25.740
719.07	24.349
719.25	22.353
719.43	24.804
719.62	22.833
719.80	21.503
719.98	19.629
720.16	22.111
720.35	22.541
720.53	21.306
720.71	16.769
720.89	17.971
721.08	24.676
721.26	26.626
721.44	27.186
721.62	30.455
721.81	31.612
721.99	33.121
722.17	27.933
722.35	27.052
722.54	29.538
722.72	31.345
722.90	35.223
723.08	34.061
723.27	30.756
723.45	28.350
723.63	31.054
723.81	31.174
724.00	30.165
724.18	29.448
724.36	26.896
724.54	21.395
724.72	24.710
724.91	18.800
725.09	17.597
725.27	20.601
725.45	23.691
725.64	16.241
725.82	16.455
726.00	18.152
726.18	22.665
726.36	21.365
726.55	25.664
726.73	26.547
726.91	28.023
727.09	25.084
727.27	26.993
727.46	25.474
727.64	25.578
727.82	27.410
728.00	24.628
728.18	21.729
728.37	23.505
728.55	26.406
728.73	24.381
728.91	24.683
729.09	26.722
729.27	23.268
729.46	25.089
729.64	26.098
729.82	23.784
730.00	25.607
730.18	26.005
730.36	26.094
730.55	18.771
730.73	19.530
730.91	19.220
731.09	17.003
731.27	15.999
731.45	17.393
731.64	19.122
731.82	22.648
732.00	21.891
732.18	22.614
732.36	23.055
732.54	29.550
732.73	31.264
732.91	33.064
733.09	33.022
733.27	35.567
733.45	35.915
733.63	36.705
733.81	39.148
734.00	41.770
734.18	40.245
734.36	41.933
734.54	40.995
734.72	42.411
734.90	43.442
735.08	41.834
735.26	41.463
735.45	37.690
735.63	34.591
735.81	25.862
735.99	20.509
736.17	24.965
736.35	26.764
736.53	25.805
736.71	20.363
736.89	16.706
737.08	20.363
737.26	17.966
737.44	21.542
737.62	24.742
737.80	23.909
737.98	31.715
738.16	31.324
738.34	28.038
738.52	28.795
738.70	27.968
738.89	33.690
739.07	37.147
739.25	38.163
739.43	36.485
739.61	36.487
739.79	39.616
739.97	36.283
740.15	36.457
740.33	38.680
740.51	39.731
740.69	41.574
740.87	36.022
741.06	31.406
741.24	31.175
741.42	32.942
741.60	29.526
741.78	28.155
741.96	27.789
742.14	25.359
742.32	20.859
742.50	22.039
742.68	21.440
742.86	22.595
743.04	21.088
743.22	27.469
743.40	24.769
743.58	26.659
743.76	33.191
743.94	29.976
744.12	31.057
744.30	32.776
744.49	34.420
744.67	36.768
744.85	36.862
745.03	42.108
745.21	33.911
745.39	35.367
745.57	35.324
745.75	30.400
745.93	35.199
746.11	35.252
746.29	38.996
746.47	32.341
746.65	29.967
746.83	33.826
747.01	37.377
747.19	38.270
747.37	39.232
747.55	43.888
747.73	43.910
747.91	41.866
748.09	43.466
748.27	45.000
748.45	50.000
748.63	47.203
748.81	44.819
748.99	40.904
749.17	36.531
749.35	35.867
749.53	35.212
749.71	29.282
749.89	29.753
750.07	27.308
750.25	18.332
750.43	13.772
750.61	18.894
750.79	18.840
750.97	28.720
751.15	34.893
751.33	33.069
751.51	28.740
751.69	34.369
751.87	33.678
752.05	33.754
752.23	38.112
752.40	43.356
752.58	43.355
752.76	46.601
752.94	36.079
753.12	39.913
753.30	42.678
753.48	43.034
753.66	45.092
753.84	51.084
754.02	54.020
754.20	53.101
754.38	47.333
754.56	47.557
754.74	45.706
754.92	43.957
755.10	38.796
755.28	33.839
755.46	32.733
755.64	30.147
755.81	25.402
755.99	22.994
756.17	24.206
756.35	27.993
756.53	24.955
756.71	25.966
756.89	27.628
757.07	20.326
757.25	22.035
757.43	24.872
757.61	25.820
757.79	25.242
757.96	21.918
758.14	20.457
758.32	18.270
758.50	18.651
758.68	19.061
758.86	25.045
759.04	29.428
759.22	27.993
759.40	26.345
759.58	27.873
759.75	26.839
759.93	32.543
760.11	36.417
760.29	38.245
760.47	33.703
760.65	37.041
760.83	30.739
761.01	35.229
761.19	34.771
761.36	28.540
761.54	22.727
761.72	21.603
761.90	17.248
762.08	17.961
762.26	14.986
762.44	20.807
762.62	14.917
762.79	18.383
762.97	17.382
763.15	17.554
763.33	25.699
763.51	27.782
763.69	28.326
763.87	31.370
764.04	31.166
764.22	30.162
764.40	32.686
764.58	35.417
764.76	34.494
764.94	34.972
765.11	40.067
765.29	37.777
765.47	41.373
765.65	41.781
765.83	44.129
766.01	42.568
766.18	48.343
766.36	45.537
766.54	41.667
766.72	44.969
766.90	40.660
767.08	38.518
767.25	41.158
767.43	36.969
767.61	35.463
767.79	31.434
767.97	31.503
768.14	28.196
768.32	27.757
768.50	27.821
768.68	20.381
768.86	34.968
769.03	34.092
769.21	40.995
769.39	43.817
769.57	42.781
769.75	43.966
769.92	42.105
770.10	42.169
770.28	43.274
770.46	50.209
770.64	53.080
770.81	47.015
770.99	48.020
771.17	37.872
771.35	35.811
771.53	41.056
771.70	35.374
771.88	31.327
772.06	32.106
772.24	26.662
772.41	23.149
772.59	20.662
772.77	16.991
772.95	12.764
773.12	21.665
773.30	19.337
773.48	23.259
773.66	31.131
773.84	42.125
774.01	40.439
774.19	48.279
774.37	46.906
774.55	53.422
774.72	55.852
774.90	60.956
775.08	56.567
775.25	55.330
775.43	52.676
775.61	48.851
775.79	45.051
775.96	55.782
776.14	56.104
776.32	50.595
776.50	39.964
776.67	44.318
776.85	36.135
777.03	35.892
777.21	38.822
777.38	39.200
777.56	45.465
777.74	46.850
777.91	27.878
778.09	19.074
778.27	36.410
778.45	41.267
778.62	45.514
778.80	47.647
778.98	49.284
779.15	50.238
779.33	48.740
779.51	42.218
779.68	31.056
779.86	39.784
780.04	49.778
780.22	33.305
780.39	44.717
780.57	42.097
780.75	46.823
780.92	52.048
781.10	44.311
781.28	48.316
781.45	48.096
781.63	53.796
781.81	53.596
781.98	43.503
782.16	58.690
782.34	49.767
782.51	41.731
782.69	37.860
782.87	35.484
783.04	40.972
783.22	36.079
783.40	35.702
783.57	32.041
783.75	39.233
783.93	58.872
784.10	56.698
784.28	59.202
784.46	67.745
784.63	74.586
784.81	65.248
784.99	67.104
785.16	68.492
785.34	65.470
785.52	69.946
785.69	68.594
785.87	57.093
786.04	57.230
786.22	47.441
786.40	47.423
786.57	41.943
786.75	43.590
786.93	41.771
787.10	40.323
787.28	46.900
787.45	40.395
787.63	37.442
787.81	46.347
787.98	43.286
788.16	49.020
788.34	47.809
788.51	52.283
788.69	56.137
788.86	58.207
789.04	55.996
789.22	52.724
789.39	45.897
789.57	51.481
789.74	43.889
789.92	45.040
790.10	46.189
790.27	40.305
790.45	43.296
790.62	39.418
790.80	34.895
790.97	40.597
791.15	39.846
791.33	56.798
791.50	48.124
791.68	51.292
791.85	54.691
792.03	48.156
792.21	57.096
792.38	50.545
792.56	48.969
792.73	62.571
792.91	57.728
793.08	55.556
793.26	32.900
793.44	35.484
793.61	31.826
793.79	32.864
793.96	29.659
794.14	25.110
794.31	11.475
794.49	12.237
794.66	-11.338
794.84	14.506
795.01	28.481
795.19	38.765
795.37	41.424
795.54	36.563
795.72	43.937
795.89	44.971
796.07	42.934
796.24	50.291
796.42	54.163
796.59	46.000
796.77	45.272
796.94	53.151
797.12	52.913
797.29	50.332
797.47	57.700
797.64	44.288
797.82	55.143
797.99	52.923
798.17	49.351
798.35	45.618
798.52	64.613
798.70	59.362
798.87	46.314
799.05	51.571
799.22	50.841
799.40	44.320
799.57	46.470
799.75	47.338
799.92	53.401
800.10	66.026
800.27	77.601
800.45	64.222
800.62	80.907
800.79	73.838
800.97	75.502
801.14	70.497
801.32	76.333
801.49	79.705
801.67	68.371
801.84	73.544
802.02	61.636
802.19	60.658
802.37	70.429
802.54	59.821
802.72	66.283
802.89	49.687
803.07	59.605
803.24	61.715
803.42	71.373
803.59	83.151
803.76	80.737
803.94	84.524
804.11	86.637
804.29	99.097
804.46	92.702
804.64	89.663
804.81	99.744
804.99	94.744
805.16	89.281
805.34	75.101
805.51	58.519
805.68	59.587
805.86	64.336
806.03	45.628
806.21	31.571
806.38	36.012
806.56	50.812
806.73	35.714
806.90	43.302
807.08	34.535
807.25	34.691
807.43	42.123
807.60	37.574
807.78	22.523
807.95	34.317
808.12	36.700
808.30	42.152
808.47	34.953
808.65	49.613
808.82	36.390
808.99	42.651
809.17	29.833
809.34	42.922
809.52	39.013
809.69	52.801
809.86	37.608
810.04	27.679
810.21	28.517
810.39	37.523
810.56	34.173
810.73	50.980
810.91	55.172
811.08	63.701
811.25	48.164
811.43	59.509
811.60	58.196
811.78	58.316
811.95	64.756
812.12	63.503
812.30	58.418
812.47	56.018
812.64	58.081
812.82	60.647
812.99	59.825
813.17	64.647
813.34	57.156
813.51	49.520
813.69	54.529
813.86	54.276
814.03	41.607
814.21	43.556
814.38	49.268
814.55	45.161
814.73	44.000
814.90	48.933
815.07	38.945
815.25	39.029
815.42	41.581
815.59	33.067
815.77	29.654
815.94	37.612
816.11	52.314
816.29	41.600
816.46	31.967
816.63	31.311
816.81	35.466
816.98	65.736
817.15	57.222
817.33	60.695
817.50	73.397
817.67	72.394
817.85	80.392
818.02	85.303
818.19	94.728
818.37	98.251
818.54	92.133
818.71	98.450
818.88	93.228
819.06	103.858
819.23	101.832
819.40	77.763
819.58	82.317
819.75	82.232
819.92	69.385
820.09	75.553
820.27	73.676
820.44	55.529
820.61	41.552
820.79	29.527
820.96	28.414
821.13	20.703
821.30	31.822
821.48	26.186
821.65	17.246
821.82	6.862
822.00	4.825
822.17	7.726
822.34	13.074
822.51	16.893
822.69	15.725
822.86	19.202
823.03	20.383
823.20	20.401
823.38	25.044
823.55	28.622
823.72	31.210
823.89	31.704
824.07	32.580
824.24	30.110
824.41	28.372
824.58	30.976
824.76	30.716
824.93	32.816
825.10	34.104
825.27	32.071
825.45	27.474
825.62	33.041
825.79	33.752
825.96	32.397
826.13	37.698
826.31	41.420
826.48	39.644
826.65	35.249
826.82	28.880
827.00	26.672
827.17	32.109
827.34	34.662
827.51	31.711
827.68	30.713
827.86	31.280
828.03	23.047
828.20	24.675
828.37	25.294
828.54	24.271
828.72	30.100
828.89	30.270
829.06	24.368
829.23	29.241
829.40	33.637
829.58	32.432
829.75	36.181
829.92	46.367
830.09	46.077
830.26	51.546
830.44	59.148
830.61	67.761
830.78	70.646
830.95	81.481
831.12	68.116
831.29	67.896
831.47	76.055
831.64	80.913
831.81	83.269
831.98	81.316
832.15	93.302
832.32	99.440
832.50	82.121
832.67	78.954
832.84	62.829
833.01	67.285
833.18	64.371
833.35	59.334
833.53	53.290
833.70	44.793
833.87	50.496
834.04	38.989
834.21	39.532
834.38	28.537
834.55	18.387
834.72	25.626
834.90	30.061
835.07	22.407
835.24	29.055
835.41	26.262
835.58	26.062
835.75	14.954
835.92	18.312
836.10	16.589
836.27	14.812
836.44	11.650
836.61	0.338
836.78	-0.896
836.95	3.913
837.12	4.946
837.29	15.693
837.46	23.774
837.64	27.823
837.81	33.551
837.98	37.234
838.15	43.310
838.32	57.449
838.49	67.189
838.66	62.115
838.83	62.565
839.00	58.092
839.17	63.382
839.34	44.392
839.52	54.809
839.69	65.645
839.86	74.369
840.03	74.749
840.20	65.492
840.37	50.421
840.54	67.288
840.71	68.007
840.88	80.032
841.05	67.424
841.22	70.847
841.39	58.961
841.56	33.410
841.74	28.188
841.91	27.368
842.08	34.211
842.25	45.508
842.42	23.833
842.59	4.850
842.76	3.233
842.93	11.677
843.10	42.406
843.27	44.027
843.44	50.888
843.61	42.153
843.78	58.070
843.95	54.200
844.12	61.268
844.29	63.230
844.46	81.038
844.63	100.826
844.80	96.552
844.97	109.688
845.14	115.900
845.31	122.667
845.48	99.554
845.65	129.353
845.82	203.185
845.99	137.809
846.16	224.390
846.33	366.667
846.50	538.571
846.67	-8320.000
846.85	1244.118
847.02	380.342
847.19	243.269
847.36	411.321
847.53	1010.526
847.70	268.657
847.87	1481.818
848.03	305.825
848.20	137.799
848.37	102.151
848.54	90.417
848.71	87.917
848.88	200.000
849.05	191.603
849.22	282.828
849.39	233.333
849.56	414.773
849.73	4366.667
849.90	448.936
850.07	-274.286
850.24	-568.750
850.41	788.372
850.58	976.923
850.75	227.861
850.92	255.479
851.09	321.552
851.26	-1222.222
851.43	305.797
851.60	263.636
851.77	3500.000
851.94	614.286
852.11	666.102
852.28	-333.684
852.45	-324.658
852.62	-172.115
852.79	-110.651
852.96	-246.377
853.12	-108.750
853.29	-92.035
853.46	-17.273
853.63	-44.749
853.80	-27.143
853.97	-20.323
854.14	-16.014
854.31	-78.302
854.48	-231.429
854.65	-184.685
854.82	747.170
854.99	391.071
855.16	181.466
855.33	184.783
855.49	135.749
855.66	156.944
855.83	128.358
856.00	90.705
856.17	74.490
856.34	133.846
856.51	129.851
856.68	77.922
856.85	110.870
857.02	741.667
857.18	83.978
857.35	275.824
857.52	260.294
857.69	296.667
857.86	482.857
858.03	342.975
858.20	-546.939
858.37	-253.125
858.54	1228.000
858.70	274.380
858.87	346.296
859.04	-418.605
859.21	739.394
859.38	870.588
859.55	-325.000
859.72	304.478
859.89	144.538
860.05	82.838
860.22	116.462
860.39	107.775
860.56	128.190
860.73	151.620
860.90	145.077
861.07	136.761
861.23	139.813
861.40	114.773
861.57	126.887
861.74	182.060
861.91	265.471
862.08	1403.226
862.24	42900.000
862.41	-348.515
862.58	-154.795
862.75	-614.286
862.92	-405.882
863.09	485.246
863.25	-4528.571
863.42	415.909
863.59	300.000
863.76	193.600
863.93	96.059
864.10	143.750
864.26	136.559
864.43	76.277
864.60	30.769
864.77	52.247
864.94	503.571
865.10	46.565
865.27	-46.512
865.44	50.307
865.61	76.571
865.78	107.692
865.94	86.719
866.11	139.146
866.28	210.400
866.45	207.500
866.62	258.929
866.78	169.388
866.95	296.053
867.12	264.224
867.29	221.254
867.46	230.201
867.62	184.655
867.79	190.083
867.96	150.917
868.13	158.140
868.29	156.197
868.46	153.247
868.63	107.482
868.80	110.979
868.97	106.757
869.13	99.402
869.30	92.910
869.47	144.292
869.64	156.442
869.80	125.191
869.97	130.000
870.14	97.260
870.31	118.831
870.47	-1778.571
870.64	22700.000
870.81	-4916.667
870.98	1061.538
871.14	-5010.000
871.31	286.154
871.48	289.823
871.65	213.542
871.81	177.603
871.98	229.110
872.15	243.725
872.31	240.741
872.48	265.556
872.65	250.177
872.82	467.376
872.98	220.415
873.15	220.472
873.32	178.541
873.48	224.066
873.65	255.605
873.82	211.494
873.99	201.794
874.15	131.636
874.32	114.557
874.49	103.306
874.65	51.969
874.82	64.231
874.99	89.069
875.16	172.477
875.32	257.746
875.49	232.704
875.66	243.750
875.82	192.213
875.99	264.925
876.16	-15200.000
876.32	4740.000
876.49	-259.259
876.66	5016.667
876.82	-541.304
876.99	-329.545
877.16	-165.714
877.32	423.810
877.49	-52.632
877.66	103.030
877.82	78.191
877.99	117.131
878.16	102.465
878.32	94.538
878.49	80.134
878.66	67.155
878.82	66.411
878.99	83.424
879.16	88.025
879.32	46.053
879.49	62.400
879.66	82.102
879.82	56.851
879.99	21.860
880.16	-20.000
880.32	19.658
880.49	254.545
880.65	-630.769
880.82	139.344
880.99	-51.899
881.15	3825.000
881.32	187.654
881.49	103.930
881.65	179.286
881.82	137.107
881.98	91.892
882.15	98.293
882.32	72.034
882.48	76.879
882.65	80.967
882.82	106.003
882.98	80.378
883.15	62.290
883.31	53.611
883.48	51.889
883.65	44.465
883.81	47.028
883.98	46.851
884.14	38.884
884.31	35.272
884.48	31.205
884.64	30.184
884.81	32.168
884.97	42.740
885.14	43.282
885.30	42.146
885.47	43.680
885.64	48.399
885.80	43.519
885.97	49.121
886.13	44.124
886.30	51.786
886.47	43.337
886.63	49.731
886.80	44.778
886.96	41.166
887.13	45.014
887.29	43.984
887.46	49.063
887.62	46.867
887.79	43.908
887.96	47.826
888.12	-15.000
888.29	378.947
888.45	13.462
888.62	22.772
888.78	245.455
>>>>>End Processed Spectral Data<<<<<
