SpectraSuite Data File
++++++++++++++++++++++++++++++++++++
Date: Mon Jan 12 10:55:23 EST 2009
User: Lex
Dark Spectrum Present: Yes
Reference Spectrum Present: Yes
Number of Sampled Component Spectra: 1
Spectrometers: USB4E03001
Integration Time (usec): 100000 (USB4E03001)
Spectra Averaged: 5 (USB4E03001)
Boxcar Smoothing: 5 (USB4E03001)
Correct for Electrical Dark: No (USB4E03001)
Strobe/Lamp Enabled: Yes (USB4E03001)
Correct for Detector Non-linearity: No (USB4E03001)
Correct for Stray Light: No (USB4E03001)
Number of Pixels in Processed Spectrum: 3648
>>>>>Begin Processed Spectral Data<<<<<
177.57	-106.667
177.79	-106.667
178.01	-106.667
178.23	200.000
178.45	113.559
178.66	239.474
178.88	204.478
179.10	182.156
179.32	182.178
179.54	143.814
179.76	102.864
179.98	135.262
180.20	119.394
180.42	140.635
180.64	364.130
180.86	651.923
181.08	197.863
181.30	213.089
181.52	255.474
181.74	546.000
181.96	-1252.632
182.18	-488.571
182.40	-502.740
182.62	-2277.778
182.84	-671.667
183.06	3253.333
183.28	594.030
183.50	-314.286
183.72	-405.714
183.94	-412.698
184.16	263.158
184.38	-420.588
184.60	-560.784
184.82	513.953
185.04	6550.000
185.26	398.077
185.48	-1156.250
185.69	-214.667
185.91	-416.129
186.13	426.984
186.35	485.246
186.57	-562.264
186.79	206.818
187.01	454.286
187.23	-671.739
187.45	-325.472
187.67	-265.217
187.89	-454.839
188.11	820.779
188.33	1982.759
188.55	-1029.825
188.77	-6355.556
188.99	722.581
189.21	516.000
189.42	310.244
189.64	496.774
189.86	520.000
190.08	362.879
190.30	404.706
190.52	6500.000
190.74	172.340
190.96	481.818
191.18	-616.667
191.40	-84.699
191.62	-47.987
191.84	-61.682
192.06	-36.513
192.27	-72.727
192.49	-70.175
192.71	-545.614
192.93	-141.085
193.15	-25.083
193.37	4.865
193.59	20.870
193.81	13.333
194.03	-45.205
194.25	92.174
194.47	616.667
194.68	-19.403
194.90	-36.000
195.12	-11.278
195.34	413.158
195.56	283.333
195.78	456.897
196.00	306.000
196.22	221.026
196.44	305.442
196.66	317.969
196.87	317.021
197.09	230.159
197.31	263.478
197.53	-1291.667
197.75	1166.667
197.97	600.000
198.19	2.174
198.41	-222.059
198.63	28.249
198.84	-50.000
199.06	-74.138
199.28	-67.196
199.50	-142.778
199.72	-156.442
199.94	-600.000
200.16	-127.612
200.38	-91.554
200.59	-189.286
200.81	-113.523
201.03	-245.500
201.25	-175.676
201.47	-783.333
201.69	990.141
201.91	408.621
202.13	293.004
202.34	353.927
202.56	242.140
202.78	222.222
203.00	274.902
203.22	195.380
203.44	161.131
203.66	156.184
203.87	174.251
204.09	188.793
204.31	2860.000
204.53	-693.103
204.75	557.143
204.97	230.864
205.19	631.250
205.40	1250.000
205.62	762.500
205.84	406.452
206.06	-806.667
206.28	205.755
206.50	344.615
206.71	189.189
206.93	176.444
207.15	262.209
207.37	409.483
207.59	372.436
207.81	249.362
208.02	213.889
208.24	189.556
208.46	206.052
208.68	189.728
208.90	157.500
209.12	186.486
209.33	211.790
209.55	139.939
209.77	147.632
209.99	96.190
210.21	119.938
210.43	149.811
210.64	193.548
210.86	169.517
211.08	556.250
211.30	930.612
211.52	561.111
211.74	390.816
211.95	788.679
212.17	260.465
212.39	310.185
212.61	127.099
212.83	153.093
213.04	352.542
213.26	249.351
213.48	220.000
213.70	219.620
213.92	204.233
214.13	193.839
214.35	177.778
214.57	304.520
214.79	-3663.636
215.01	-515.294
215.22	-1625.000
215.44	477.165
215.66	686.905
215.88	380.000
216.10	1100.000
216.31	-466.667
216.53	-173.437
216.75	-88.757
216.97	-61.883
217.19	-212.727
217.40	-1017.857
217.62	-339.506
217.84	-145.679
218.06	-142.763
218.27	-94.211
218.49	-226.168
218.71	-2041.176
218.93	-1343.333
219.15	-4190.000
219.36	-696.667
219.58	-848.980
219.80	6100.000
220.02	237.903
220.23	96.708
220.45	50.633
220.67	68.966
220.89	59.006
221.11	5.000
221.32	-1020.000
221.54	77.586
221.76	-708.333
221.98	-76.056
222.19	341.667
222.41	23.214
222.63	-61.798
222.85	-405.128
223.06	-830.556
223.28	-825.000
223.50	-281.443
223.72	-493.182
223.93	458.333
224.15	435.821
224.37	-651.429
224.59	-2284.615
224.80	-712.821
225.02	-162.069
225.24	-35.256
225.46	46.970
225.67	-54.335
225.89	1783.333
226.11	365.753
226.33	310.769
226.54	525.000
226.76	342.991
226.98	755.882
227.20	627.273
227.41	199.351
227.63	242.537
227.85	147.584
228.06	60.291
228.28	81.704
228.50	72.619
228.72	63.063
228.93	59.158
229.15	38.769
229.37	38.957
229.59	40.559
229.80	48.313
230.02	42.969
230.24	51.384
230.45	70.739
230.67	66.618
230.89	68.430
231.11	86.556
231.32	81.002
231.54	96.217
231.76	101.253
231.97	164.451
232.19	158.074
232.41	159.409
232.63	218.261
232.84	132.121
233.06	145.930
233.28	142.988
233.49	120.183
233.71	99.083
233.93	88.350
234.14	73.897
234.36	39.650
234.58	45.534
234.79	40.606
235.01	49.354
235.23	50.482
235.45	38.804
235.66	33.880
235.88	43.292
236.10	36.593
236.31	45.876
236.53	97.959
236.75	251.961
236.96	359.524
237.18	194.444
237.40	86.792
237.61	-106.000
237.83	-1325.000
238.05	-615.385
238.26	-576.471
238.48	2047.059
238.70	154.237
238.91	118.468
239.13	84.141
239.35	81.443
239.56	225.397
239.78	1681.818
240.00	296.703
240.21	474.603
240.43	112.100
240.65	85.864
240.86	61.825
241.08	51.641
241.30	43.003
241.51	63.240
241.73	67.009
241.95	52.161
242.16	50.413
242.38	45.422
242.60	27.573
242.81	30.154
243.03	24.512
243.25	18.940
243.46	23.070
243.68	35.067
243.90	31.605
244.11	34.124
244.33	29.803
244.55	41.195
244.76	28.733
244.98	39.890
245.19	35.824
245.41	39.632
245.63	43.434
245.84	40.014
246.06	30.033
246.28	30.064
246.49	27.540
246.71	29.016
246.92	23.527
247.14	30.198
247.36	23.390
247.57	28.805
247.79	33.085
248.01	35.614
248.22	36.587
248.44	36.729
248.65	38.499
248.87	39.961
249.09	45.372
249.30	48.224
249.52	54.408
249.74	66.226
249.95	63.344
250.17	58.544
250.38	50.648
250.60	58.985
250.82	56.425
251.03	47.102
251.25	46.400
251.46	41.203
251.68	47.307
251.90	44.510
252.11	35.879
252.33	31.282
252.54	28.343
252.76	26.544
252.98	28.042
253.19	34.332
253.41	37.487
253.62	38.100
253.84	41.130
254.06	33.595
254.27	10.065
254.49	20.000
254.70	36.154
254.92	34.149
255.14	34.333
255.35	19.094
255.57	15.092
255.78	6.293
256.00	0.834
256.21	-5.015
256.43	14.172
256.65	25.631
256.86	28.536
257.08	23.514
257.29	15.100
257.51	12.158
257.72	12.446
257.94	16.597
258.16	19.905
258.37	18.754
258.59	18.993
258.80	14.488
259.02	16.112
259.23	18.729
259.45	16.243
259.66	18.682
259.88	21.754
260.10	26.058
260.31	25.128
260.53	25.868
260.74	20.410
260.96	21.182
261.17	22.378
261.39	19.363
261.60	14.529
261.82	18.405
262.04	18.985
262.25	21.231
262.47	20.083
262.68	17.706
262.90	16.409
263.11	29.914
263.33	23.822
263.54	21.277
263.76	22.234
263.97	30.300
264.19	22.260
264.40	21.883
264.62	25.242
264.84	12.250
265.05	25.922
265.27	13.375
265.48	14.050
265.70	12.325
265.91	5.671
266.13	11.691
266.34	6.282
266.56	4.006
266.77	5.659
266.99	-2.311
267.20	-4.277
267.42	-16.746
267.63	-10.226
267.85	-4.634
268.06	-9.701
268.28	-4.849
268.49	-11.787
268.71	-5.676
268.92	4.213
269.14	3.606
269.35	3.653
269.57	21.102
269.78	25.744
270.00	30.056
270.21	24.231
270.43	33.213
270.64	28.514
270.86	34.223
271.07	31.389
271.29	22.096
271.50	20.313
271.72	21.050
271.93	15.153
272.15	6.286
272.36	0.676
272.58	0.982
272.79	-7.028
273.01	-10.100
273.22	-7.537
273.44	-12.342
273.65	-4.549
273.87	1.712
274.08	1.575
274.30	1.576
274.51	8.915
274.73	15.580
274.94	25.683
275.16	32.325
275.37	37.888
275.59	35.209
275.80	36.062
276.01	30.489
276.23	26.228
276.44	27.273
276.66	31.569
276.87	32.490
277.09	34.364
277.30	26.070
277.52	26.319
277.73	24.233
277.95	22.717
278.16	20.559
278.38	28.579
278.59	32.020
278.80	27.906
279.02	28.309
279.23	36.204
279.45	39.193
279.66	40.066
279.88	43.355
280.09	46.599
280.31	47.194
280.52	50.449
280.73	48.378
280.95	50.206
281.16	49.794
281.38	45.902
281.59	38.471
281.81	33.688
282.02	29.541
282.24	31.296
282.45	26.768
282.66	23.908
282.88	26.848
283.09	27.449
283.31	25.885
283.52	26.974
283.74	30.425
283.95	27.670
284.16	31.797
284.38	36.526
284.59	29.302
284.81	31.502
285.02	33.127
285.23	31.188
285.45	28.446
285.66	26.951
285.88	22.258
286.09	21.461
286.31	25.951
286.52	21.515
286.73	18.185
286.95	20.395
287.16	21.118
287.38	20.857
287.59	21.572
287.80	25.869
288.02	24.341
288.23	26.027
288.45	25.970
288.66	23.621
288.87	23.777
289.09	22.685
289.30	23.324
289.52	24.861
289.73	25.568
289.94	25.046
290.16	21.337
290.37	27.444
290.58	25.190
290.80	24.432
291.01	24.537
291.23	21.208
291.44	26.076
291.65	23.206
291.87	22.265
292.08	24.707
292.29	22.252
292.51	21.215
292.72	15.369
292.94	20.379
293.15	20.883
293.36	19.471
293.58	22.541
293.79	25.100
294.00	29.031
294.22	27.742
294.43	23.978
294.65	27.851
294.86	28.342
295.07	28.811
295.29	29.899
295.50	26.959
295.71	27.466
295.93	27.788
296.14	27.089
296.35	22.103
296.57	19.986
296.78	20.985
296.99	17.136
297.21	17.021
297.42	16.423
297.63	15.758
297.85	17.592
298.06	19.517
298.28	21.807
298.49	18.182
298.70	17.518
298.92	22.039
299.13	20.323
299.34	19.813
299.56	21.811
299.77	24.856
299.98	23.836
300.20	22.951
300.41	20.905
300.62	19.742
300.84	19.463
301.05	25.147
301.26	24.058
301.47	26.049
301.69	29.436
301.90	25.520
302.11	20.466
302.33	17.652
302.54	16.979
302.75	17.477
302.97	15.653
303.18	14.157
303.39	13.514
303.61	14.437
303.82	11.203
304.03	8.811
304.25	6.984
304.46	12.654
304.67	15.597
304.88	21.425
305.10	20.707
305.31	19.884
305.52	18.810
305.74	19.298
305.95	19.368
306.16	23.128
306.38	23.002
306.59	27.706
306.80	22.383
307.01	23.341
307.23	19.535
307.44	17.165
307.65	24.402
307.87	30.098
308.08	29.891
308.29	28.056
308.50	25.175
308.72	24.783
308.93	23.357
309.14	31.603
309.36	30.487
309.57	29.330
309.78	27.269
309.99	20.906
310.21	13.386
310.42	9.478
310.63	5.647
310.84	13.007
311.06	11.860
311.27	15.062
311.48	10.617
311.70	10.664
311.91	12.983
312.12	14.854
312.33	18.843
312.55	20.744
312.76	27.423
312.97	31.080
313.18	26.758
313.40	31.079
313.61	26.350
313.82	28.212
314.03	27.258
314.25	28.489
314.46	30.709
314.67	30.386
314.88	32.958
315.10	29.940
315.31	29.657
315.52	29.059
315.73	26.072
315.95	29.063
316.16	32.386
316.37	33.605
316.58	31.504
316.80	33.847
317.01	29.694
317.22	27.286
317.43	25.438
317.64	23.714
317.86	28.108
318.07	27.227
318.28	32.579
318.49	33.146
318.71	38.640
318.92	36.335
319.13	33.518
319.34	30.955
319.55	32.598
319.77	29.678
319.98	25.891
320.19	19.006
320.40	16.681
320.62	12.154
320.83	13.604
321.04	10.546
321.25	11.270
321.46	11.750
321.68	13.535
321.89	16.117
322.10	11.818
322.31	11.361
322.52	14.906
322.74	17.430
322.95	16.739
323.16	15.081
323.37	13.736
323.58	14.107
323.80	10.192
324.01	13.325
324.22	15.579
324.43	23.849
324.64	27.291
324.86	29.298
325.07	29.364
325.28	30.817
325.49	29.364
325.70	28.142
325.91	25.384
326.13	29.345
326.34	27.056
326.55	25.273
326.76	23.699
326.97	22.948
327.18	20.894
327.40	23.585
327.61	21.143
327.82	22.421
328.03	24.991
328.24	29.186
328.45	25.527
328.67	27.608
328.88	23.511
329.09	25.796
329.30	28.780
329.51	25.035
329.72	25.370
329.94	27.591
330.15	25.263
330.36	21.805
330.57	21.559
330.78	20.804
330.99	18.951
331.21	21.425
331.42	20.221
331.63	20.490
331.84	20.748
332.05	18.867
332.26	20.000
332.47	19.791
332.69	23.873
332.90	24.021
333.11	28.026
333.32	32.136
333.53	31.970
333.74	30.622
333.95	29.132
334.16	32.570
334.38	28.134
334.59	25.216
334.80	24.928
335.01	23.061
335.22	24.009
335.43	22.906
335.64	19.533
335.85	19.319
336.07	23.388
336.28	23.984
336.49	22.488
336.70	26.543
336.91	26.341
337.12	30.743
337.33	30.737
337.54	30.297
337.76	29.978
337.97	30.932
338.18	30.607
338.39	29.133
338.60	29.550
338.81	28.767
339.02	30.075
339.23	31.365
339.44	31.300
339.65	34.205
339.87	34.145
340.08	33.288
340.29	33.446
340.50	35.900
340.71	31.494
340.92	33.666
341.13	33.048
341.34	31.934
341.55	35.523
341.76	32.974
341.97	30.706
342.19	30.957
342.40	31.845
342.61	31.186
342.82	29.840
343.03	33.717
343.24	28.120
343.45	29.843
343.66	30.438
343.87	25.460
344.08	23.816
344.29	24.352
344.50	24.911
344.71	23.950
344.93	26.208
345.14	26.710
345.35	27.507
345.56	29.940
345.77	29.078
345.98	27.909
346.19	26.510
346.40	28.155
346.61	25.585
346.82	24.278
347.03	27.956
347.24	25.667
347.45	22.446
347.66	16.729
347.87	15.248
348.08	17.896
348.29	16.118
348.50	20.860
348.71	19.224
348.93	22.408
349.14	21.644
349.35	19.879
349.56	19.449
349.77	19.507
349.98	20.457
350.19	20.336
350.40	17.609
350.61	20.394
350.82	21.552
351.03	22.653
351.24	23.590
351.45	25.071
351.66	21.691
351.87	16.839
352.08	20.699
352.29	24.474
352.50	25.813
352.71	28.364
352.92	24.692
353.13	24.276
353.34	22.814
353.55	23.764
353.76	22.106
353.97	22.417
354.18	28.170
354.39	24.432
354.60	24.074
354.81	23.766
355.02	22.477
355.23	26.348
355.44	24.132
355.65	24.786
355.86	21.991
356.07	23.552
356.28	25.651
356.49	25.037
356.70	25.315
356.91	21.613
357.12	20.808
357.33	21.178
357.54	19.406
357.75	18.125
357.96	17.659
358.17	18.214
358.38	16.089
358.59	15.558
358.80	14.223
359.01	15.232
359.22	18.272
359.43	18.611
359.64	17.831
359.85	16.188
360.06	16.379
360.27	18.349
360.48	19.035
360.69	18.776
360.90	19.335
361.11	17.947
361.32	16.190
361.53	15.339
361.74	16.494
361.95	16.452
362.16	18.387
362.37	17.803
362.58	17.310
362.79	18.327
362.99	20.156
363.20	18.294
363.41	19.749
363.62	23.498
363.83	23.437
364.04	24.854
364.25	24.319
364.46	24.046
364.67	25.326
364.88	24.099
365.09	21.023
365.30	17.890
365.51	19.510
365.72	19.881
365.93	14.403
366.14	13.675
366.35	13.280
366.56	13.326
366.76	13.277
366.97	16.916
367.18	18.772
367.39	20.518
367.60	22.605
367.81	22.619
368.02	23.835
368.23	26.578
368.44	27.902
368.65	24.892
368.86	26.216
369.07	26.986
369.28	24.711
369.48	21.202
369.69	20.575
369.90	19.744
370.11	19.087
370.32	16.833
370.53	15.684
370.74	12.416
370.95	12.380
371.16	12.979
371.37	10.593
371.58	9.391
371.78	10.957
371.99	11.790
372.20	11.561
372.41	10.111
372.62	10.875
372.83	13.421
373.04	17.691
373.25	18.867
373.46	15.930
373.67	19.544
373.87	22.222
374.08	23.692
374.29	22.543
374.50	22.362
374.71	24.655
374.92	25.824
375.13	24.017
375.34	22.129
375.55	23.046
375.75	23.979
375.96	22.866
376.17	22.620
376.38	19.041
376.59	18.995
376.80	21.135
377.01	19.141
377.21	15.731
377.42	14.201
377.63	13.430
377.84	11.155
378.05	12.805
378.26	13.608
378.47	11.246
378.68	12.620
378.88	13.049
379.09	11.109
379.30	10.484
379.51	10.388
379.72	13.418
379.93	13.350
380.14	15.494
380.34	15.771
380.55	14.198
380.76	17.243
380.97	16.472
381.18	16.946
381.39	16.667
381.59	16.538
381.80	18.664
382.01	17.605
382.22	16.159
382.43	13.227
382.64	9.651
382.84	11.760
383.05	10.545
383.26	13.513
383.47	13.867
383.68	14.614
383.89	15.042
384.09	13.434
384.30	13.887
384.51	14.322
384.72	15.439
384.93	17.200
385.14	16.628
385.34	16.371
385.55	16.592
385.76	16.160
385.97	15.279
386.18	17.592
386.38	19.055
386.59	18.490
386.80	17.993
387.01	19.672
387.22	19.383
387.42	18.910
387.63	18.714
387.84	17.251
388.05	16.783
388.26	15.694
388.46	16.538
388.67	16.947
388.88	16.568
389.09	17.246
389.30	18.270
389.50	19.083
389.71	18.763
389.92	17.128
390.13	17.111
390.34	16.036
390.54	17.748
390.75	16.395
390.96	16.601
391.17	15.776
391.37	15.978
391.58	15.113
391.79	16.653
392.00	15.651
392.21	15.918
392.41	15.123
392.62	16.990
392.83	16.688
393.04	15.722
393.24	15.098
393.45	15.768
393.66	17.010
393.87	15.406
394.07	12.979
394.28	14.114
394.49	14.854
394.70	14.726
394.91	13.946
395.11	15.794
395.32	15.649
395.53	15.300
395.74	14.752
395.94	13.193
396.15	13.331
396.36	13.709
396.57	14.822
396.77	16.525
396.98	17.050
397.19	14.506
397.40	13.581
397.60	14.298
397.81	15.737
398.02	16.887
398.22	17.781
398.43	18.510
398.64	20.647
398.85	18.746
399.05	17.500
399.26	16.843
399.47	19.260
399.68	18.315
399.88	18.012
400.09	17.850
400.30	18.089
400.50	16.810
400.71	16.997
400.92	14.195
401.13	15.397
401.33	15.549
401.54	17.625
401.75	15.491
401.95	15.942
402.16	14.915
402.37	13.859
402.58	12.946
402.78	13.707
402.99	13.851
403.20	13.633
403.40	11.511
403.61	11.864
403.82	10.619
404.03	11.469
404.23	10.999
404.44	12.399
404.65	12.872
404.85	12.009
405.06	11.017
405.27	9.513
405.47	10.737
405.68	11.038
405.89	10.333
406.09	11.512
406.30	11.942
406.51	13.180
406.71	12.346
406.92	12.899
407.13	16.377
407.34	17.472
407.54	20.361
407.75	19.931
407.96	20.879
408.16	22.333
408.37	20.520
408.58	19.362
408.78	17.592
408.99	16.522
409.20	14.993
409.40	10.820
409.61	12.108
409.82	9.430
410.02	9.116
410.23	8.499
410.44	7.736
410.64	8.072
410.85	10.395
411.05	10.908
411.26	12.524
411.47	12.765
411.67	15.464
411.88	13.929
412.09	15.330
412.29	15.706
412.50	15.549
412.71	14.667
412.91	13.865
413.12	13.187
413.33	12.733
413.53	13.031
413.74	14.358
413.94	13.074
414.15	12.787
414.36	11.949
414.56	11.475
414.77	12.663
414.98	12.980
415.18	14.629
415.39	14.894
415.59	15.024
415.80	14.649
416.01	15.163
416.21	14.668
416.42	14.068
416.63	14.933
416.83	14.872
417.04	14.017
417.24	13.142
417.45	13.940
417.66	14.183
417.86	14.192
418.07	13.830
418.27	12.887
418.48	12.265
418.69	13.703
418.89	13.140
419.10	13.729
419.30	13.810
419.51	15.063
419.72	14.293
419.92	14.791
420.13	15.235
420.33	15.816
420.54	15.462
420.75	15.814
420.95	15.784
421.16	16.160
421.36	15.838
421.57	16.050
421.78	15.691
421.98	15.521
422.19	14.458
422.39	14.320
422.60	14.083
422.80	13.916
423.01	14.539
423.22	13.714
423.42	13.273
423.63	13.988
423.83	13.363
424.04	13.405
424.24	13.682
424.45	14.111
424.66	14.103
424.86	13.759
425.07	14.268
425.27	13.817
425.48	14.775
425.68	14.078
425.89	13.386
426.10	14.086
426.30	14.615
426.51	14.923
426.71	14.754
426.92	14.245
427.12	14.247
427.33	14.179
427.53	13.872
427.74	13.951
427.94	15.200
428.15	14.944
428.36	14.329
428.56	13.195
428.77	12.992
428.97	12.744
429.18	13.742
429.38	14.263
429.59	15.442
429.79	16.431
430.00	15.882
430.20	17.044
430.41	17.043
430.61	18.527
430.82	19.030
431.02	18.395
431.23	18.333
431.43	17.647
431.64	17.615
431.84	17.365
432.05	17.107
432.26	17.673
432.46	15.816
432.67	16.608
432.87	16.014
433.08	15.578
433.28	15.856
433.49	16.159
433.69	15.743
433.90	16.231
434.10	15.680
434.31	16.730
434.51	16.775
434.72	17.461
434.92	17.850
435.13	18.065
435.33	18.618
435.54	19.191
435.74	19.664
435.95	21.724
436.15	22.269
436.36	22.407
436.56	22.400
436.76	22.271
436.97	23.112
437.17	22.441
437.38	22.193
437.58	22.498
437.79	21.500
437.99	21.576
438.20	20.297
438.40	19.634
438.61	19.266
438.81	18.811
439.02	18.081
439.22	16.587
439.43	16.592
439.63	16.648
439.84	15.410
440.04	15.816
440.24	15.416
440.45	15.456
440.65	15.066
440.86	14.666
441.06	14.230
441.27	14.241
441.47	15.344
441.68	15.486
441.88	15.086
442.09	15.247
442.29	14.892
442.49	14.463
442.70	14.616
442.90	14.260
443.11	14.191
443.31	14.292
443.52	13.685
443.72	13.170
443.93	11.615
444.13	11.867
444.33	12.131
444.54	12.241
444.74	13.034
444.95	13.239
445.15	12.912
445.36	12.502
445.56	12.488
445.76	13.353
445.97	13.706
446.17	14.473
446.38	14.791
446.58	15.570
446.79	15.960
446.99	14.984
447.19	14.727
447.40	15.425
447.60	16.117
447.81	16.215
448.01	15.827
448.21	14.185
448.42	13.668
448.62	13.266
448.83	13.331
449.03	13.811
449.23	15.297
449.44	14.889
449.64	15.095
449.85	15.004
450.05	15.644
450.25	15.806
450.46	17.967
450.66	18.817
450.87	18.916
451.07	18.295
451.27	16.670
451.48	16.100
451.68	16.248
451.88	15.701
452.09	16.543
452.29	16.216
452.50	15.839
452.70	15.622
452.90	15.582
453.11	14.622
453.31	14.310
453.51	15.536
453.72	15.741
453.92	15.374
454.13	15.372
454.33	14.804
454.53	14.230
454.74	15.455
454.94	15.662
455.14	15.523
455.35	17.289
455.55	17.626
455.75	16.880
455.96	16.219
456.16	17.151
456.37	17.620
456.57	17.438
456.77	17.415
456.98	16.056
457.18	15.290
457.38	16.112
457.59	14.394
457.79	12.996
457.99	12.838
458.20	13.157
458.40	12.331
458.60	12.195
458.81	12.301
459.01	12.598
459.21	13.279
459.42	14.481
459.62	13.804
459.82	13.678
460.03	14.557
460.23	14.592
460.43	15.195
460.64	15.831
460.84	15.376
461.04	15.801
461.25	15.678
461.45	15.407
461.65	14.053
461.86	14.044
462.06	14.820
462.26	14.071
462.46	14.715
462.67	12.915
462.87	12.413
463.07	12.664
463.28	12.321
463.48	11.132
463.68	12.078
463.89	12.604
464.09	11.874
464.29	11.045
464.49	11.940
464.70	12.360
464.90	13.715
465.10	13.402
465.31	13.709
465.51	13.002
465.71	14.823
465.92	13.193
466.12	13.423
466.32	14.798
466.52	16.603
466.73	17.344
466.93	16.958
467.13	16.475
467.33	16.757
467.54	17.253
467.74	17.517
467.94	16.270
468.15	16.761
468.35	16.245
468.55	15.428
468.75	14.339
468.96	13.929
469.16	13.616
469.36	13.972
469.56	14.080
469.77	14.626
469.97	15.270
470.17	15.306
470.37	15.197
470.58	14.392
470.78	14.486
470.98	15.267
471.18	15.709
471.39	15.441
471.59	15.668
471.79	15.742
471.99	14.816
472.20	13.943
472.40	14.202
472.60	15.368
472.80	15.956
473.01	16.706
473.21	16.389
473.41	16.003
473.61	15.328
473.82	14.801
474.02	15.153
474.22	15.208
474.42	15.990
474.63	16.738
474.83	16.119
475.03	16.339
475.23	15.906
475.43	15.260
475.64	13.860
475.84	14.982
476.04	14.214
476.24	14.080
476.44	13.430
476.65	12.324
476.85	11.512
477.05	11.438
477.25	10.483
477.46	10.942
477.66	11.887
477.86	13.038
478.06	12.753
478.26	14.183
478.47	14.203
478.67	15.033
478.87	14.687
479.07	15.200
479.27	15.093
479.48	15.952
479.68	15.225
479.88	14.899
480.08	14.810
480.28	15.319
480.48	14.504
480.69	13.981
480.89	14.017
481.09	15.015
481.29	15.270
481.49	15.210
481.70	15.552
481.90	15.569
482.10	15.045
482.30	14.356
482.50	13.883
482.70	13.589
482.91	13.894
483.11	13.836
483.31	13.649
483.51	13.452
483.71	13.309
483.91	13.029
484.12	12.874
484.32	13.005
484.52	13.266
484.72	13.288
484.92	13.494
485.12	13.396
485.32	13.483
485.53	13.418
485.73	13.400
485.93	13.339
486.13	13.128
486.33	13.258
486.53	13.138
486.73	12.772
486.94	12.883
487.14	13.080
487.34	13.229
487.54	12.946
487.74	12.746
487.94	12.947
488.14	13.292
488.35	13.551
488.55	13.720
488.75	13.635
488.95	14.116
489.15	13.805
489.35	13.550
489.55	13.634
489.75	13.563
489.96	13.858
490.16	13.725
490.36	13.287
490.56	13.834
490.76	13.623
490.96	13.964
491.16	14.010
491.36	14.153
491.56	14.806
491.77	14.569
491.97	14.668
492.17	14.684
492.37	14.848
492.57	15.275
492.77	14.919
492.97	15.321
493.17	15.592
493.37	15.647
493.57	15.824
493.78	15.353
493.98	15.738
494.18	15.878
494.38	16.126
494.58	15.477
494.78	14.901
494.98	14.844
495.18	14.683
495.38	14.323
495.58	14.531
495.78	14.383
495.98	13.860
496.19	14.376
496.39	13.661
496.59	13.797
496.79	14.734
496.99	15.233
497.19	15.349
497.39	14.995
497.59	14.754
497.79	13.800
497.99	14.282
498.19	14.228
498.39	13.699
498.59	13.868
498.79	13.562
498.99	13.069
499.19	12.818
499.40	13.020
499.60	13.326
499.80	13.388
500.00	14.299
500.20	14.231
500.40	14.565
500.60	14.401
500.80	15.421
501.00	15.879
501.20	16.114
501.40	16.791
501.60	16.751
501.80	17.081
502.00	17.008
502.20	16.542
502.40	16.483
502.60	17.165
502.80	16.802
503.00	17.241
503.20	17.488
503.40	16.209
503.60	16.713
503.80	16.682
504.00	16.628
504.20	16.706
504.40	17.141
504.60	17.111
504.80	17.086
505.00	17.539
505.20	16.567
505.40	16.227
505.60	17.569
505.80	16.863
506.00	16.738
506.20	16.543
506.40	16.351
506.60	16.410
506.80	16.532
507.00	16.719
507.20	16.559
507.40	16.290
507.60	15.569
507.80	14.577
508.00	14.261
508.20	14.476
508.40	13.597
508.60	14.600
508.80	13.833
509.00	13.544
509.20	12.890
509.40	12.829
509.60	13.450
509.80	14.132
510.00	14.334
510.20	14.428
510.40	14.211
510.60	15.117
510.80	14.928
511.00	15.544
511.20	15.773
511.40	15.805
511.60	16.105
511.80	16.260
512.00	16.365
512.20	16.501
512.40	17.008
512.60	17.316
512.80	16.896
513.00	16.448
513.20	15.998
513.40	15.680
513.60	15.780
513.80	15.288
513.99	14.762
514.19	15.456
514.39	16.276
514.59	15.727
514.79	15.673
514.99	15.848
515.19	16.124
515.39	15.786
515.59	15.962
515.79	16.062
515.99	16.170
516.19	16.130
516.39	15.054
516.59	14.679
516.79	14.593
516.98	14.274
517.18	14.868
517.38	14.813
517.58	15.232
517.78	15.384
517.98	15.304
518.18	14.993
518.38	14.770
518.58	15.473
518.78	15.350
518.98	15.571
519.18	15.493
519.37	15.178
519.57	15.311
519.77	15.533
519.97	15.120
520.17	14.980
520.37	15.555
520.57	16.789
520.77	16.692
520.97	17.169
521.17	17.478
521.36	17.701
521.56	18.271
521.76	18.620
521.96	18.678
522.16	19.520
522.36	20.368
522.56	20.117
522.76	20.023
522.96	19.336
523.15	19.679
523.35	19.913
523.55	19.949
523.75	19.518
523.95	19.240
524.15	19.026
524.35	18.340
524.55	18.110
524.74	18.305
524.94	17.733
525.14	17.943
525.34	18.128
525.54	17.619
525.74	17.295
525.94	17.237
526.13	16.848
526.33	17.160
526.53	17.662
526.73	17.246
526.93	17.269
527.13	17.101
527.33	16.778
527.52	16.470
527.72	16.857
527.92	17.402
528.12	17.076
528.32	17.051
528.52	16.878
528.71	16.746
528.91	16.961
529.11	16.804
529.31	16.808
529.51	17.002
529.71	16.833
529.90	16.578
530.10	16.459
530.30	16.692
530.50	17.152
530.70	17.363
530.90	17.243
531.09	17.253
531.29	16.805
531.49	17.062
531.69	16.973
531.89	17.021
532.09	17.142
532.28	17.093
532.48	17.509
532.68	17.204
532.88	17.250
533.08	17.123
533.27	17.244
533.47	17.695
533.67	17.636
533.87	18.053
534.07	18.123
534.26	18.237
534.46	18.115
534.66	17.833
534.86	18.162
535.06	18.037
535.25	18.414
535.45	18.335
535.65	18.806
535.85	18.565
536.04	18.607
536.24	19.003
536.44	18.794
536.64	18.689
536.84	18.504
537.03	18.021
537.23	17.699
537.43	18.052
537.63	17.999
537.82	17.426
538.02	17.949
538.22	17.688
538.42	17.328
538.62	17.901
538.81	18.292
539.01	18.663
539.21	18.782
539.41	19.369
539.60	18.876
539.80	19.049
540.00	19.093
540.20	18.577
540.39	18.866
540.59	18.590
540.79	17.457
540.99	17.431
541.18	17.444
541.38	17.562
541.58	17.269
541.78	17.582
541.97	17.524
542.17	18.099
542.37	18.180
542.57	18.194
542.76	18.244
542.96	19.023
543.16	19.033
543.36	19.031
543.55	18.832
543.75	19.159
543.95	19.175
544.14	19.636
544.34	18.969
544.54	19.310
544.74	18.819
544.93	18.613
545.13	18.234
545.33	18.444
545.52	18.305
545.72	19.027
545.92	18.830
546.12	18.852
546.31	17.630
546.51	17.788
546.71	17.626
546.90	17.928
547.10	18.718
547.30	18.923
547.49	18.323
547.69	18.676
547.89	18.089
548.09	18.899
548.28	18.354
548.48	19.111
548.68	19.988
548.87	20.547
549.07	20.469
549.27	20.542
549.46	20.933
549.66	21.500
549.86	21.372
550.05	22.070
550.25	21.516
550.45	22.600
550.64	23.167
550.84	22.094
551.04	22.390
551.24	21.919
551.43	21.649
551.63	20.525
551.83	19.840
552.02	19.855
552.22	19.124
552.41	19.487
552.61	18.698
552.81	19.124
553.00	19.153
553.20	18.666
553.40	19.270
553.59	19.249
553.79	20.871
553.99	22.152
554.18	21.967
554.38	22.336
554.58	22.260
554.77	22.979
554.97	21.612
555.17	22.582
555.36	22.758
555.56	23.151
555.76	23.455
555.95	22.614
556.15	22.335
556.34	23.254
556.54	22.752
556.74	21.993
556.93	22.042
557.13	22.503
557.33	21.740
557.52	21.172
557.72	20.707
557.91	19.522
558.11	19.497
558.31	19.426
558.50	19.796
558.70	21.419
558.90	21.998
559.09	21.998
559.29	22.366
559.48	23.119
559.68	22.869
559.88	22.193
560.07	23.291
560.27	25.166
560.46	24.338
560.66	23.241
560.86	23.238
561.05	22.410
561.25	22.513
561.44	22.209
561.64	20.774
561.84	21.587
562.03	22.431
562.23	21.429
562.42	19.348
562.62	19.831
562.81	19.639
563.01	18.502
563.21	19.000
563.40	19.215
563.60	19.355
563.79	20.720
563.99	20.802
564.18	19.919
564.38	20.260
564.58	20.185
564.77	20.516
564.97	21.371
565.16	21.118
565.36	21.452
565.55	21.020
565.75	21.264
565.95	20.850
566.14	20.706
566.34	21.244
566.53	21.406
566.73	22.160
566.92	21.894
567.12	21.764
567.31	22.396
567.51	22.038
567.71	22.144
567.90	22.256
568.10	22.258
568.29	22.397
568.49	21.980
568.68	22.086
568.88	22.653
569.07	23.244
569.27	23.507
569.46	23.342
569.66	24.158
569.85	24.002
570.05	24.765
570.24	25.894
570.44	25.376
570.64	25.448
570.83	25.702
571.03	25.186
571.22	24.263
571.42	24.304
571.61	24.323
571.81	22.706
572.00	21.972
572.20	21.645
572.39	21.101
572.59	21.500
572.78	22.048
572.98	20.701
573.17	20.561
573.37	20.505
573.56	21.218
573.76	20.978
573.95	21.691
574.15	22.628
574.34	21.882
574.54	21.410
574.73	20.718
574.93	20.138
575.12	21.516
575.32	21.255
575.51	21.809
575.71	20.215
575.90	20.390
576.10	19.878
576.29	19.181
576.49	19.311
576.68	18.753
576.87	18.579
577.07	18.862
577.26	18.729
577.46	18.361
577.65	17.953
577.85	17.812
578.04	17.045
578.24	17.117
578.43	17.620
578.63	18.183
578.82	19.342
579.02	20.010
579.21	19.872
579.41	19.753
579.60	19.856
579.79	19.956
579.99	20.349
580.18	21.468
580.38	22.675
580.57	22.248
580.77	20.852
580.96	20.658
581.16	18.887
581.35	18.939
581.54	19.082
581.74	18.735
581.93	20.128
582.13	20.513
582.32	21.955
582.52	21.168
582.71	21.155
582.90	23.005
583.10	21.951
583.29	23.023
583.49	23.064
583.68	21.878
583.88	22.286
584.07	21.079
584.26	20.616
584.46	18.297
584.65	17.907
584.85	18.361
585.04	18.280
585.23	18.902
585.43	19.700
585.62	20.569
585.82	21.667
586.01	21.786
586.20	21.043
586.40	22.182
586.59	22.240
586.79	24.280
586.98	24.516
587.17	22.752
587.37	22.936
587.56	23.297
587.76	23.283
587.95	24.228
588.14	23.358
588.34	24.546
588.53	23.793
588.73	24.408
588.92	23.474
589.11	22.921
589.31	22.568
589.50	22.406
589.69	22.919
589.89	23.576
590.08	23.265
590.28	24.524
590.47	23.969
590.66	24.211
590.86	23.466
591.05	22.396
591.24	21.859
591.44	22.123
591.63	22.787
591.82	22.097
592.02	20.500
592.21	20.181
592.41	20.814
592.60	21.072
592.79	21.522
592.99	22.182
593.18	22.297
593.37	23.336
593.57	24.767
593.76	24.037
593.95	23.617
594.15	24.289
594.34	24.291
594.53	22.861
594.73	22.868
594.92	21.987
595.11	21.905
595.31	22.143
595.50	21.648
595.69	21.662
595.89	21.878
596.08	22.922
596.27	22.881
596.47	21.599
596.66	21.784
596.85	21.769
597.05	21.934
597.24	21.808
597.43	22.446
597.62	22.779
597.82	21.900
598.01	21.642
598.20	20.176
598.40	20.537
598.59	20.548
598.78	21.056
598.98	21.187
599.17	20.624
599.36	20.350
599.55	19.316
599.75	19.707
599.94	21.151
600.13	21.619
600.33	23.072
600.52	21.260
600.71	22.712
600.91	22.612
601.10	22.452
601.29	22.667
601.48	23.710
601.68	23.779
601.87	21.859
602.06	21.406
602.25	21.360
602.45	21.249
602.64	22.592
602.83	22.624
603.03	23.246
603.22	23.895
603.41	24.928
603.60	25.221
603.80	25.873
603.99	26.234
604.18	26.569
604.37	26.436
604.57	26.556
604.76	26.705
604.95	25.343
605.14	24.754
605.34	25.439
605.53	25.034
605.72	25.038
605.91	24.658
606.11	24.660
606.30	25.029
606.49	25.467
606.68	24.981
606.88	24.605
607.07	25.893
607.26	25.150
607.45	24.264
607.65	22.729
607.84	22.621
608.03	23.751
608.22	23.778
608.41	23.183
608.61	23.368
608.80	21.733
608.99	20.142
609.18	20.249
609.38	21.420
609.57	20.881
609.76	20.861
609.95	19.723
610.14	18.651
610.34	19.614
610.53	19.145
610.72	19.004
610.91	21.182
611.10	23.149
611.30	23.945
611.49	23.839
611.68	25.451
611.87	27.015
612.06	28.389
612.26	28.067
612.45	27.755
612.64	28.130
612.83	27.689
613.02	28.180
613.22	28.325
613.41	27.369
613.60	27.159
613.79	25.499
613.98	24.556
614.17	23.007
614.37	23.778
614.56	23.336
614.75	22.501
614.94	22.625
615.13	22.544
615.32	22.385
615.52	23.091
615.71	22.150
615.90	21.516
616.09	20.181
616.28	21.733
616.47	21.969
616.67	21.203
616.86	20.504
617.05	18.996
617.24	17.592
617.43	16.876
617.62	16.905
617.82	16.308
618.01	16.905
618.20	18.806
618.39	19.640
618.58	19.652
618.77	18.990
618.96	17.981
619.16	20.039
619.35	21.450
619.54	21.738
619.73	21.336
619.92	23.197
620.11	23.211
620.30	23.471
620.49	21.694
620.69	21.159
620.88	22.954
621.07	24.299
621.26	24.477
621.45	23.086
621.64	22.043
621.83	22.662
622.02	21.697
622.22	21.141
622.41	20.130
622.60	20.577
622.79	20.504
622.98	22.076
623.17	22.934
623.36	21.745
623.55	20.994
623.74	20.909
623.93	19.744
624.13	21.086
624.32	20.998
624.51	20.854
624.70	21.149
624.89	21.797
625.08	18.317
625.27	17.948
625.46	17.073
625.65	17.653
625.84	18.338
626.03	18.162
626.23	18.015
626.42	18.454
626.61	19.630
626.80	18.768
626.99	18.107
627.18	19.982
627.37	20.435
627.56	21.104
627.75	21.516
627.94	21.239
628.13	21.808
628.32	21.189
628.51	20.090
628.70	20.514
628.89	20.546
629.09	21.022
629.28	20.343
629.47	19.624
629.66	20.360
629.85	19.828
630.04	19.163
630.23	18.497
630.42	18.993
630.61	19.890
630.80	19.033
630.99	20.610
631.18	19.589
631.37	19.845
631.56	19.538
631.75	19.919
631.94	21.009
632.13	22.166
632.32	21.507
632.51	21.105
632.70	21.213
632.89	21.920
633.08	20.705
633.27	21.734
633.46	21.870
633.65	22.986
633.84	22.253
634.03	23.222
634.22	23.151
634.41	23.369
634.60	23.467
634.79	24.478
634.99	24.823
635.18	24.730
635.37	24.963
635.56	23.797
635.75	22.693
635.94	21.290
636.13	18.980
636.32	17.724
636.51	18.454
636.69	15.096
636.88	14.422
637.07	12.919
637.26	12.438
637.45	11.934
637.64	13.681
637.83	15.117
638.02	14.972
638.21	15.970
638.40	18.100
638.59	17.444
638.78	21.150
638.97	20.906
639.16	20.727
639.35	21.621
639.54	22.179
639.73	21.529
639.92	20.582
640.11	20.950
640.30	20.569
640.49	19.600
640.68	21.136
640.87	20.160
641.06	19.937
641.25	20.899
641.44	19.625
641.63	19.393
641.82	20.063
642.01	21.461
642.20	22.104
642.39	22.554
642.58	22.823
642.76	20.922
642.95	21.397
643.14	23.158
643.33	23.259
643.52	22.476
643.71	19.989
643.90	20.025
644.09	20.103
644.28	20.381
644.47	19.190
644.66	18.721
644.85	21.614
645.04	23.579
645.23	21.232
645.41	21.695
645.60	22.571
645.79	25.017
645.98	24.086
646.17	22.645
646.36	22.023
646.55	23.267
646.74	23.104
646.93	20.088
647.12	17.215
647.31	18.619
647.49	15.400
647.68	16.017
647.87	16.661
648.06	20.004
648.25	20.036
648.44	24.121
648.63	25.290
648.82	25.913
649.01	26.524
649.20	24.160
649.38	22.751
649.57	23.619
649.76	22.690
649.95	21.344
650.14	18.271
650.33	19.563
650.52	16.646
650.71	15.663
650.89	14.388
651.08	13.280
651.27	17.745
651.46	17.315
651.65	17.650
651.84	17.666
652.03	18.462
652.22	17.079
652.40	15.072
652.59	14.741
652.78	14.259
652.97	16.595
653.16	18.698
653.35	17.101
653.54	18.206
653.72	18.235
653.91	18.701
654.10	18.819
654.29	21.164
654.48	22.933
654.67	21.403
654.85	21.952
655.04	22.222
655.23	22.049
655.42	23.614
655.61	23.333
655.80	22.435
655.98	21.204
656.17	20.844
656.36	21.747
656.55	20.829
656.74	23.004
656.93	20.824
657.11	18.951
657.30	18.656
657.49	16.060
657.68	16.878
657.87	17.481
658.06	18.304
658.24	18.642
658.43	18.178
658.62	18.929
658.81	18.097
659.00	18.859
659.18	19.021
659.37	19.096
659.56	19.994
659.75	18.964
659.94	19.209
660.12	18.725
660.31	19.950
660.50	19.517
660.69	19.459
660.88	19.068
661.06	20.628
661.25	21.724
661.44	22.337
661.63	22.348
661.81	22.951
662.00	24.112
662.19	24.793
662.38	22.973
662.57	24.623
662.75	24.669
662.94	25.115
663.13	24.149
663.32	23.323
663.50	22.127
663.69	21.208
663.88	22.665
664.07	21.956
664.25	22.811
664.44	23.233
664.63	20.259
664.82	18.143
665.00	17.544
665.19	15.973
665.38	15.452
665.57	16.883
665.75	19.616
665.94	20.719
666.13	20.380
666.32	21.034
666.50	21.537
666.69	23.323
666.88	23.815
667.07	24.106
667.25	24.264
667.44	24.330
667.63	23.993
667.82	22.832
668.00	20.480
668.19	21.294
668.38	20.495
668.56	17.061
668.75	17.758
668.94	18.114
669.13	18.163
669.31	18.146
669.50	19.804
669.69	20.004
669.88	18.940
670.06	18.729
670.25	18.346
670.44	19.375
670.62	22.661
670.81	23.265
671.00	23.638
671.18	25.309
671.37	27.067
671.56	25.742
671.75	25.443
671.93	26.528
672.12	26.185
672.31	27.056
672.49	26.070
672.68	24.600
672.87	22.875
673.05	23.379
673.24	23.427
673.43	21.861
673.61	20.767
673.80	18.655
673.99	18.991
674.17	20.835
674.36	21.089
674.55	20.656
674.73	20.617
674.92	18.883
675.11	18.196
675.29	16.696
675.48	16.369
675.67	15.016
675.85	17.171
676.04	15.745
676.23	14.649
676.41	12.659
676.60	13.291
676.79	12.722
676.97	15.237
677.16	16.408
677.35	19.281
677.53	22.271
677.72	25.346
677.91	24.745
678.09	26.131
678.28	26.305
678.47	26.440
678.65	26.798
678.84	27.099
679.02	24.884
679.21	24.791
679.40	20.469
679.58	19.298
679.77	20.631
679.96	20.472
680.14	20.754
680.33	22.723
680.51	22.719
680.70	21.630
680.89	22.873
681.07	25.119
681.26	24.452
681.44	24.929
681.63	23.207
681.82	21.830
682.00	22.505
682.19	21.419
682.38	18.604
682.56	19.574
682.75	20.510
682.93	19.791
683.12	18.098
683.31	15.677
683.49	17.241
683.68	17.855
683.86	16.433
684.05	17.152
684.23	16.804
684.42	18.137
684.61	18.542
684.79	16.502
684.98	17.527
685.16	16.512
685.35	20.469
685.54	17.911
685.72	19.182
685.91	20.613
686.09	17.896
686.28	18.945
686.46	19.683
686.65	19.400
686.83	20.456
687.02	20.469
687.21	21.776
687.39	23.140
687.58	26.668
687.76	24.927
687.95	24.698
688.13	24.666
688.32	23.522
688.50	21.146
688.69	21.545
688.88	21.598
689.06	20.402
689.25	21.889
689.43	20.277
689.62	19.922
689.80	20.794
689.99	18.924
690.17	20.692
690.36	22.356
690.54	23.270
690.73	23.902
690.91	24.432
691.10	25.350
691.29	23.322
691.47	22.441
691.66	20.773
691.84	21.200
692.03	25.049
692.21	23.826
692.40	25.702
692.58	28.812
692.77	27.883
692.95	27.812
693.14	28.008
693.32	26.318
693.51	28.058
693.69	30.283
693.88	31.917
694.06	30.215
694.25	30.458
694.43	27.137
694.62	23.774
694.80	22.643
694.99	23.211
695.17	22.114
695.36	26.686
695.54	23.620
695.73	22.068
695.91	21.984
696.10	18.339
696.28	15.879
696.47	14.915
696.65	13.260
696.84	14.272
697.02	15.288
697.20	16.107
697.39	13.756
697.57	13.958
697.76	11.339
697.94	8.380
698.13	13.692
698.31	18.100
698.50	20.113
698.68	20.688
698.87	20.733
699.05	20.917
699.24	21.233
699.42	21.038
699.60	21.512
699.79	23.794
699.97	24.766
700.16	23.905
700.34	22.959
700.53	22.926
700.71	26.895
700.90	27.760
701.08	27.764
701.26	26.046
701.45	30.372
701.63	32.675
701.82	31.427
702.00	32.522
702.19	34.286
702.37	33.199
702.55	32.560
702.74	31.417
702.92	32.158
703.11	32.957
703.29	32.560
703.48	28.380
703.66	25.424
703.84	28.643
704.03	29.968
704.21	27.081
704.40	26.327
704.58	25.914
704.76	21.543
704.95	21.418
705.13	18.872
705.32	21.616
705.50	20.911
705.68	19.698
705.87	19.932
706.05	14.940
706.24	18.044
706.42	19.062
706.60	18.804
706.79	21.923
706.97	21.377
707.15	21.384
707.34	20.835
707.52	22.119
707.71	26.935
707.89	26.586
708.07	32.287
708.26	27.391
708.44	27.559
708.62	29.362
708.81	29.536
708.99	26.165
709.18	29.202
709.36	28.410
709.54	27.403
709.73	24.948
709.91	26.700
710.09	24.375
710.28	27.020
710.46	26.499
710.64	26.148
710.83	27.376
711.01	28.030
711.19	25.751
711.38	26.258
711.56	25.934
711.74	24.521
711.93	25.077
712.11	22.944
712.30	22.081
712.48	25.485
712.66	24.665
712.85	21.404
713.03	21.991
713.21	23.102
713.39	22.584
713.58	24.919
713.76	25.021
713.94	24.297
714.13	28.153
714.31	29.276
714.49	26.654
714.68	26.679
714.86	27.753
715.04	33.177
715.23	32.198
715.41	31.172
715.59	31.228
715.78	32.249
715.96	29.799
716.14	26.025
716.32	28.312
716.51	26.386
716.69	28.214
716.87	24.418
717.06	21.830
717.24	21.852
717.42	22.520
717.61	19.422
717.79	18.393
717.97	17.766
718.15	18.943
718.34	16.535
718.52	19.094
718.70	19.223
718.88	22.124
719.07	20.494
719.25	17.351
719.43	17.987
719.62	21.548
719.80	22.042
719.98	20.200
720.16	20.667
720.35	18.294
720.53	19.216
720.71	18.147
720.89	22.364
721.08	20.326
721.26	24.501
721.44	24.105
721.62	23.863
721.81	22.824
721.99	22.662
722.17	20.490
722.35	25.401
722.54	26.225
722.72	27.367
722.90	22.677
723.08	18.959
723.27	21.407
723.45	21.106
723.63	24.851
723.81	22.927
724.00	26.686
724.18	27.280
724.36	23.670
724.54	20.103
724.72	16.975
724.91	17.600
725.09	25.100
725.27	24.820
725.45	28.096
725.64	16.292
725.82	20.996
726.00	18.527
726.18	19.440
726.36	21.224
726.55	22.345
726.73	24.925
726.91	25.316
727.09	22.175
727.27	22.649
727.46	19.868
727.64	23.228
727.82	25.255
728.00	28.230
728.18	31.102
728.37	31.151
728.55	32.998
728.73	32.234
728.91	34.556
729.09	37.450
729.27	34.935
729.46	33.860
729.64	34.492
729.82	29.435
730.00	29.574
730.18	25.188
730.36	22.507
730.55	19.147
730.73	20.407
730.91	18.280
731.09	15.334
731.27	11.665
731.45	14.750
731.64	15.856
731.82	21.045
732.00	19.699
732.18	20.477
732.36	20.614
732.54	27.101
732.73	25.221
732.91	24.941
733.09	26.017
733.27	29.927
733.45	32.327
733.63	32.508
733.81	33.551
734.00	35.087
734.18	32.902
734.36	35.134
734.54	29.405
734.72	32.305
734.90	31.506
735.08	27.069
735.26	27.100
735.45	19.392
735.63	17.465
735.81	15.222
735.99	13.412
736.17	21.926
736.35	21.660
736.53	28.937
736.71	27.619
736.89	29.035
737.08	30.755
737.26	31.622
737.44	33.787
737.62	41.266
737.80	35.009
737.98	38.407
738.16	37.204
738.34	38.496
738.52	32.894
738.70	31.675
738.89	27.666
739.07	33.449
739.25	35.992
739.43	34.465
739.61	26.075
739.79	32.751
739.97	34.176
740.15	36.329
740.33	36.932
740.51	37.623
740.69	36.120
740.87	36.290
741.06	32.909
741.24	24.833
741.42	24.671
741.60	28.691
741.78	28.981
741.96	22.804
742.14	16.342
742.32	17.382
742.50	14.073
742.68	11.191
742.86	14.270
743.04	17.630
743.22	20.631
743.40	19.409
743.58	16.559
743.76	15.286
743.94	17.104
744.12	24.770
744.30	26.954
744.49	33.385
744.67	39.870
744.85	38.085
745.03	35.390
745.21	41.306
745.39	41.986
745.57	45.480
745.75	44.600
745.93	45.215
746.11	44.005
746.29	45.242
746.47	38.462
746.65	37.891
746.83	45.813
747.01	46.980
747.19	43.402
747.37	42.720
747.55	46.150
747.73	41.017
747.91	42.944
748.09	38.173
748.27	36.028
748.45	42.400
748.63	41.502
748.81	41.767
748.99	36.751
749.17	35.952
749.35	36.811
749.53	31.127
749.71	37.514
749.89	36.466
750.07	35.769
750.25	32.781
750.43	30.860
750.61	30.887
750.79	25.120
750.97	32.608
751.15	34.181
751.33	35.975
751.51	37.995
751.69	36.623
751.87	37.087
752.05	37.730
752.23	35.690
752.40	33.996
752.58	30.456
752.76	33.831
752.94	30.813
753.12	32.790
753.30	30.962
753.48	26.124
753.66	28.209
753.84	30.610
754.02	32.055
754.20	39.343
754.38	35.836
754.56	38.534
754.74	37.452
754.92	31.672
755.10	28.758
755.28	30.954
755.46	28.906
755.64	26.485
755.81	26.916
755.99	27.546
756.17	25.725
756.35	29.282
756.53	26.130
756.71	25.831
756.89	30.017
757.07	26.618
757.25	25.228
757.43	30.741
757.61	31.574
757.79	27.361
757.96	29.269
758.14	27.081
758.32	25.949
758.50	29.244
758.68	30.307
758.86	30.898
759.04	39.282
759.22	39.683
759.40	41.036
759.58	41.719
759.75	39.064
759.93	40.049
760.11	45.423
760.29	48.201
760.47	45.844
760.65	47.534
760.83	48.589
761.01	48.964
761.19	45.872
761.36	41.143
761.54	39.265
761.72	41.050
761.90	35.391
762.08	25.774
762.26	23.810
762.44	27.471
762.62	25.230
762.79	24.481
762.97	20.129
763.15	19.759
763.33	17.906
763.51	15.596
763.69	15.440
763.87	16.753
764.04	21.993
764.22	23.135
764.40	21.449
764.58	20.744
764.76	22.234
764.94	21.505
765.11	25.982
765.29	30.980
765.47	33.627
765.65	33.164
765.83	40.473
766.01	42.826
766.18	45.257
766.36	46.441
766.54	47.386
766.72	46.899
766.90	44.516
767.08	43.214
767.25	41.203
767.43	41.708
767.61	37.487
767.79	33.431
767.97	25.203
768.14	21.346
768.32	24.597
768.50	18.588
768.68	13.841
768.86	20.732
769.03	16.331
769.21	23.576
769.39	22.176
769.57	28.698
769.75	22.529
769.92	25.263
770.10	26.569
770.28	21.954
770.46	31.897
770.64	37.150
770.81	35.697
770.99	41.232
771.17	34.104
771.35	46.149
771.53	48.515
771.70	49.592
771.88	45.759
772.06	40.653
772.24	44.208
772.41	46.801
772.59	39.741
772.77	43.413
772.95	34.769
773.12	30.628
773.30	16.732
773.48	27.314
773.66	31.938
773.84	33.610
774.01	37.181
774.19	31.385
774.37	17.220
774.55	21.103
774.72	19.886
774.90	22.904
775.08	35.929
775.25	37.093
775.43	33.368
775.61	36.164
775.79	38.020
775.96	32.750
776.14	33.364
776.32	40.256
776.50	30.603
776.67	38.120
776.85	33.188
777.03	26.703
777.21	34.014
777.38	28.114
777.56	23.923
777.74	34.822
777.91	48.258
778.09	63.286
778.27	56.205
778.45	65.169
778.62	60.000
778.80	61.354
778.98	62.932
779.15	53.883
779.33	52.598
779.51	57.782
779.68	55.694
779.86	50.688
780.04	48.889
780.22	47.675
780.39	49.197
780.57	50.993
780.75	57.692
780.92	62.457
781.10	60.992
781.28	52.039
781.45	56.687
781.63	56.399
781.81	49.432
781.98	41.036
782.16	42.969
782.34	44.082
782.51	43.269
782.69	39.838
782.87	31.299
783.04	44.638
783.22	59.714
783.40	54.484
783.57	52.347
783.75	57.046
783.93	72.551
784.10	81.604
784.28	77.036
784.46	76.836
784.63	82.571
784.81	89.184
784.99	87.441
785.16	79.444
785.34	73.846
785.52	78.854
785.69	74.744
785.87	65.311
786.04	57.844
786.22	54.205
786.40	56.443
786.57	59.522
786.75	55.252
786.93	52.232
787.10	53.006
787.28	58.570
787.45	54.746
787.63	62.712
787.81	59.114
787.98	60.165
788.16	55.807
788.34	50.359
788.51	47.459
788.69	58.541
788.86	54.280
789.04	49.197
789.22	49.125
789.39	41.479
789.57	29.167
789.74	35.504
789.92	33.600
790.10	45.811
790.27	47.176
790.45	45.693
790.62	35.563
790.80	40.906
790.97	45.750
791.15	36.847
791.33	42.623
791.50	51.876
791.68	59.410
791.85	66.766
792.03	58.212
792.21	56.550
792.38	56.242
792.56	63.015
792.73	68.601
792.91	61.007
793.08	67.627
793.26	52.146
793.44	58.548
793.61	44.123
793.79	44.601
793.96	46.693
794.14	48.899
794.31	34.631
794.49	1.338
794.66	-25.624
794.84	-6.019
795.01	10.000
795.19	30.123
795.37	18.015
795.54	8.392
795.72	19.683
795.89	20.503
796.07	21.062
796.24	30.590
796.42	48.171
796.59	50.615
796.77	50.795
796.94	46.284
797.12	30.874
797.29	48.531
797.47	66.119
797.64	50.843
797.82	51.326
797.99	50.209
798.17	43.939
798.35	40.337
798.52	32.634
798.70	33.981
798.87	31.154
799.05	38.571
799.22	26.003
799.40	7.491
799.57	14.763
799.75	23.727
799.92	23.804
800.10	30.132
800.27	26.561
800.45	41.000
800.62	50.955
800.79	53.405
800.97	61.446
801.14	66.409
801.32	78.000
801.49	76.507
801.67	66.231
801.84	76.076
802.02	76.869
802.19	67.868
802.37	56.286
802.54	54.464
802.72	52.819
802.89	46.764
803.07	47.859
803.24	51.464
803.42	66.863
803.59	71.444
803.76	67.368
803.94	73.909
804.11	75.929
804.29	76.965
804.46	81.953
804.64	84.719
804.81	85.019
804.99	78.975
805.16	71.879
805.34	61.840
805.51	55.450
805.68	53.042
805.86	49.091
806.03	46.582
806.21	43.429
806.38	23.802
806.56	20.779
806.73	15.452
806.90	23.951
807.08	21.321
807.25	15.535
807.43	24.315
807.60	25.888
807.78	27.671
807.95	37.638
808.12	51.601
808.30	63.004
808.47	68.149
808.65	95.232
808.82	90.544
808.99	84.870
809.17	91.476
809.34	83.562
809.52	77.070
809.69	89.643
809.86	87.348
810.04	72.857
810.21	67.871
810.39	75.970
810.56	70.394
810.73	67.059
810.91	66.759
811.08	52.260
811.25	71.610
811.43	86.012
811.60	70.627
811.78	68.211
811.95	67.834
812.12	64.188
812.30	57.774
812.47	50.226
812.64	57.677
812.82	67.385
812.99	67.895
813.17	49.819
813.34	34.294
813.51	36.852
813.69	40.941
813.86	43.368
814.03	38.839
814.21	43.556
814.38	45.171
814.55	51.523
814.73	42.791
814.90	50.299
815.07	51.156
815.25	67.341
815.42	71.707
815.59	71.067
815.77	63.564
815.94	77.612
816.11	77.700
816.29	71.067
816.46	54.781
816.63	60.328
816.81	78.611
816.98	92.403
817.15	65.000
817.33	59.759
817.50	55.935
817.67	55.352
817.85	50.196
818.02	46.667
818.19	52.551
818.37	50.556
818.54	57.791
818.71	49.302
818.88	41.732
819.06	58.642
819.23	47.644
819.40	37.108
819.58	32.774
819.75	34.802
819.92	36.765
820.09	37.191
820.27	27.534
820.44	5.059
820.61	0.000
820.79	0.309
820.96	-2.108
821.13	-3.125
821.30	15.593
821.48	23.246
821.65	20.000
821.82	14.857
822.00	8.662
822.17	14.719
822.34	22.213
822.51	23.363
822.69	19.457
822.86	18.968
823.03	20.572
823.20	17.932
823.38	17.037
823.55	20.033
823.72	22.040
823.89	22.705
824.07	21.044
824.24	20.680
824.41	18.654
824.58	23.447
824.76	20.746
824.93	21.002
825.10	20.433
825.27	20.615
825.45	13.836
825.62	12.967
825.79	17.725
825.96	16.164
826.13	15.752
826.31	16.011
826.48	9.593
826.65	13.532
826.82	10.598
827.00	14.932
827.17	17.010
827.34	23.330
827.51	21.978
827.68	15.760
827.86	18.436
828.03	14.936
828.20	20.252
828.37	23.067
828.54	24.614
828.72	33.071
828.89	27.813
829.06	31.737
829.23	30.859
829.40	33.238
829.58	39.160
829.75	39.128
829.92	45.197
830.09	36.911
830.26	38.918
830.44	35.869
830.61	22.537
830.78	28.228
830.95	21.500
831.12	17.391
831.29	19.514
831.47	22.080
831.64	35.714
831.81	51.866
831.98	67.895
832.15	80.685
832.32	85.448
832.50	112.727
832.67	110.188
832.84	98.999
833.01	90.487
833.18	87.767
833.35	85.375
833.53	69.148
833.70	55.879
833.87	50.372
834.04	44.886
834.21	46.993
834.38	29.146
834.55	28.114
834.72	31.021
834.90	35.931
835.07	36.929
835.24	40.995
835.41	45.211
835.58	40.734
835.75	32.832
835.92	33.840
836.10	30.388
836.27	32.370
836.44	27.496
836.61	21.181
836.78	20.520
836.95	14.741
837.12	16.996
837.29	19.115
837.46	27.660
837.64	28.184
837.81	31.102
837.98	32.801
838.15	24.579
838.32	30.612
838.49	22.821
838.66	25.727
838.83	27.643
839.00	19.942
839.17	14.670
839.34	15.114
839.52	15.411
839.69	13.538
839.86	20.452
840.03	27.403
840.20	21.733
840.37	53.230
840.54	55.932
840.71	64.860
840.88	62.319
841.05	65.606
841.22	60.000
841.39	62.366
841.56	76.201
841.74	86.353
841.91	82.807
842.08	85.338
842.25	65.430
842.42	79.607
842.59	100.231
842.76	103.448
842.93	112.739
843.10	143.590
843.27	160.580
843.44	139.645
843.61	151.825
843.78	129.474
843.95	123.600
844.12	136.150
844.29	122.680
844.46	140.918
844.63	129.959
844.80	119.828
844.97	94.375
845.14	29.707
845.31	-36.667
845.48	-10.268
845.65	14.925
845.82	68.153
845.99	102.120
846.16	119.512
846.33	46.875
846.50	247.143
846.67	-3520.000
846.85	667.647
847.02	251.282
847.19	194.231
847.36	320.755
847.53	1105.263
847.70	378.358
847.87	1672.727
848.03	297.087
848.20	139.713
848.37	131.720
848.54	111.250
848.71	130.000
848.88	333.981
849.05	271.756
849.22	409.091
849.39	223.333
849.56	265.909
849.73	1333.333
849.90	140.426
850.07	-115.714
850.24	-177.083
850.41	372.093
850.58	369.231
850.75	47.761
850.92	130.137
851.09	112.069
851.26	-583.333
851.43	452.174
851.60	316.234
851.77	4530.769
851.94	757.143
852.11	1054.237
852.28	-618.947
852.45	-675.342
852.62	-530.769
852.79	-244.970
852.96	-607.246
853.12	-353.750
853.29	-65.487
853.46	-14.848
853.63	-68.950
853.80	-35.238
853.97	-12.903
854.14	15.302
854.31	-48.113
854.48	-117.143
854.65	-95.495
854.82	677.358
854.99	419.643
855.16	217.241
855.33	234.348
855.49	177.295
855.66	209.028
855.83	150.000
856.00	116.667
856.17	117.857
856.34	191.538
856.51	166.667
856.68	166.234
856.85	153.261
857.02	1141.667
857.18	59.116
857.35	157.143
857.52	205.147
857.69	233.333
857.86	371.429
858.03	334.711
858.20	-504.082
858.37	-242.188
858.54	964.000
858.70	264.463
858.87	500.000
859.04	-634.884
859.21	1187.879
859.38	2094.118
859.55	-884.091
859.72	622.388
859.89	321.849
860.05	172.277
860.22	178.870
860.39	205.630
860.56	224.926
860.73	206.944
860.90	220.350
861.07	199.562
861.23	192.740
861.40	148.864
861.57	175.000
861.74	256.146
861.91	386.547
862.08	2322.581
862.24	63700.000
862.41	-454.455
862.58	-194.521
862.75	-497.959
862.92	-433.333
863.09	555.738
863.25	-4928.571
863.42	510.227
863.59	330.189
863.76	212.800
863.93	102.956
864.10	83.333
864.26	165.591
864.43	83.577
864.60	137.179
864.77	170.787
864.94	750.000
865.10	153.435
865.27	133.721
865.44	139.877
865.61	135.429
865.78	191.124
865.94	183.203
866.11	171.886
866.28	367.200
866.45	298.750
866.62	244.643
866.78	148.639
866.95	249.342
867.12	218.534
867.29	183.972
867.46	169.463
867.62	114.578
867.79	117.355
867.96	102.982
868.13	96.195
868.29	87.393
868.46	86.364
868.63	96.350
868.80	94.807
868.97	90.034
869.13	78.486
869.30	87.531
869.47	167.123
869.64	151.534
869.80	240.458
869.97	232.857
870.14	247.945
870.31	309.740
870.47	-2421.429
870.64	25000.000
870.81	-3416.667
870.98	871.795
871.14	-2950.000
871.31	186.667
871.48	190.265
871.65	132.639
871.81	112.618
871.98	115.753
872.15	93.522
872.31	121.111
872.48	201.852
872.65	193.286
872.82	306.383
872.98	157.785
873.15	154.331
873.32	141.202
873.48	146.473
873.65	170.404
873.82	181.609
873.99	160.538
874.15	124.727
874.32	72.152
874.49	90.496
874.65	40.157
874.82	49.231
874.99	43.320
875.16	104.587
875.32	159.155
875.49	182.390
875.66	153.977
875.82	139.344
875.99	170.896
876.16	-17000.000
876.32	3100.000
876.49	-314.815
876.66	5650.000
876.82	-782.609
876.99	-788.636
877.16	-1051.429
877.32	1714.286
877.49	-665.789
877.66	384.848
877.82	152.660
877.99	137.052
878.16	133.451
878.32	105.462
878.49	112.500
878.66	127.197
878.82	88.484
878.99	70.128
879.16	90.966
879.32	74.836
879.49	97.800
879.66	148.011
879.82	131.195
879.99	200.930
880.16	715.556
880.32	264.103
880.49	305.195
880.65	-1484.615
880.82	457.377
880.99	173.418
881.15	4200.000
881.32	290.123
881.49	120.524
881.65	213.571
881.82	126.101
881.98	119.656
882.15	106.829
882.32	82.203
882.48	74.468
882.65	71.139
882.82	78.515
882.98	77.907
883.15	61.527
883.31	48.333
883.48	38.966
883.65	40.165
883.81	38.374
883.98	39.862
884.14	37.488
884.31	42.120
884.48	27.248
884.64	29.746
884.81	27.957
884.97	31.142
885.14	39.692
885.30	43.805
885.47	39.424
885.64	39.146
885.80	36.111
885.97	36.694
886.13	41.131
886.30	63.214
886.47	61.066
886.63	70.506
886.80	73.791
886.96	66.928
887.13	62.298
887.29	56.410
887.46	56.089
887.62	57.952
887.79	52.299
887.96	63.171
888.12	-130.000
888.29	205.263
888.45	16.346
888.62	-1.980
888.78	-300.000
>>>>>End Processed Spectral Data<<<<<
