SpectraSuite Data File
++++++++++++++++++++++++++++++++++++
Date: Mon Jan 12 10:55:21 EST 2009
User: Lex
Dark Spectrum Present: Yes
Reference Spectrum Present: Yes
Number of Sampled Component Spectra: 1
Spectrometers: USB4E03001
Integration Time (usec): 100000 (USB4E03001)
Spectra Averaged: 5 (USB4E03001)
Boxcar Smoothing: 5 (USB4E03001)
Correct for Electrical Dark: No (USB4E03001)
Strobe/Lamp Enabled: Yes (USB4E03001)
Correct for Detector Non-linearity: No (USB4E03001)
Correct for Stray Light: No (USB4E03001)
Number of Pixels in Processed Spectrum: 3648
>>>>>Begin Processed Spectral Data<<<<<
177.57	-13.333
177.79	-13.333
178.01	-13.333
178.23	450.000
178.45	50.847
178.66	231.579
178.88	205.473
179.10	163.569
179.32	139.934
179.54	103.866
179.76	84.248
179.98	111.846
180.20	126.061
180.42	124.762
180.64	286.957
180.86	580.769
181.08	138.889
181.30	157.068
181.52	265.693
181.74	860.000
181.96	-2768.421
182.18	-887.143
182.40	-682.192
182.62	-2972.222
182.84	-855.000
183.06	3933.333
183.28	856.716
183.50	-540.476
183.72	-641.429
183.94	-549.206
184.16	378.947
184.38	-270.588
184.60	-401.961
184.82	539.535
185.04	4275.000
185.26	386.538
185.48	-1281.250
185.69	-245.333
185.91	-224.194
186.13	231.746
186.35	344.262
186.57	-335.849
186.79	167.424
187.01	367.143
187.23	-700.000
187.45	-293.396
187.67	-221.014
187.89	-244.086
188.11	368.831
188.33	1048.276
188.55	-508.772
188.77	-2877.778
188.99	423.656
189.21	351.200
189.42	223.902
189.64	326.613
189.86	398.947
190.08	340.909
190.30	532.941
190.52	10925.000
190.74	337.234
190.96	896.970
191.18	-1528.571
191.40	-249.727
191.62	-145.973
191.84	-107.788
192.06	-101.974
192.27	-161.039
192.49	-136.842
192.71	-785.965
192.93	-341.860
193.15	-69.307
193.37	-123.243
193.59	-129.565
193.81	-206.667
194.03	-310.959
194.25	-149.565
194.47	2900.000
194.68	-207.463
194.90	-188.000
195.12	-22.556
195.34	439.474
195.56	350.000
195.78	308.621
196.00	293.000
196.22	180.513
196.44	189.796
196.66	235.937
196.87	329.787
197.09	269.841
197.31	344.348
197.53	-1891.667
197.75	1000.000
197.97	530.769
198.19	-291.304
198.41	-101.471
198.63	-23.164
198.84	-280.952
199.06	-98.276
199.28	-31.217
199.50	-25.000
199.72	-59.509
199.94	-530.189
200.16	-103.731
200.38	-89.865
200.59	-129.911
200.81	-122.064
201.03	-242.000
201.25	-158.687
201.47	-691.667
201.69	914.085
201.91	393.103
202.13	279.424
202.34	349.738
202.56	234.783
202.78	192.877
203.00	266.275
203.22	176.238
203.44	187.633
203.66	179.505
203.87	222.754
204.09	262.069
204.31	5480.000
204.53	-1027.586
204.75	692.857
204.97	456.790
205.19	1881.250
205.40	2950.000
205.62	1737.500
205.84	487.097
206.06	-2106.667
206.28	343.165
206.50	650.769
206.71	258.378
206.93	169.778
207.15	248.256
207.37	300.000
207.59	282.692
207.81	221.277
208.02	161.806
208.24	144.909
208.46	155.620
208.68	137.160
208.90	130.000
209.12	197.635
209.33	306.114
209.55	188.110
209.77	185.237
209.99	161.429
210.21	186.604
210.43	235.849
210.64	310.753
210.86	226.394
211.08	675.000
211.30	918.367
211.52	497.222
211.74	374.490
211.95	750.943
212.17	320.930
212.39	199.074
212.61	112.595
212.83	89.691
213.04	108.475
213.26	7.792
213.48	6.400
213.70	44.937
213.92	38.095
214.13	13.270
214.35	20.085
214.57	66.667
214.79	-36.364
215.01	54.118
215.22	-318.750
215.44	149.606
215.66	254.762
215.88	210.345
216.10	513.158
216.31	-358.730
216.53	-103.125
216.75	-86.982
216.97	-71.749
217.19	-360.000
217.40	-2028.571
217.62	-629.630
217.84	-263.580
218.06	-240.132
218.27	-147.895
218.49	-300.935
218.71	-1700.000
218.93	-1353.333
219.15	-3710.000
219.36	-535.000
219.58	-506.122
219.80	2471.429
220.02	113.710
220.23	117.284
220.45	104.641
220.67	125.123
220.89	145.342
221.11	223.750
221.32	1200.000
221.54	-2.586
221.76	258.333
221.98	91.549
222.19	-80.556
222.41	-244.643
222.63	-91.573
222.85	-429.487
223.06	-875.000
223.28	-1171.875
223.50	-323.711
223.72	-1054.545
223.93	794.444
224.15	988.060
224.37	-1571.429
224.59	-4792.308
224.80	-1489.744
225.02	-794.828
225.24	-180.128
225.46	-100.000
225.67	-167.630
225.89	6483.333
226.11	542.466
226.33	520.000
226.54	426.923
226.76	180.374
226.98	300.000
227.20	284.848
227.41	111.039
227.63	210.448
227.85	165.799
228.06	90.557
228.28	116.792
228.50	85.119
228.72	76.036
228.93	98.168
229.15	96.615
229.37	79.698
229.59	69.697
229.80	68.072
230.02	76.451
230.24	75.933
230.45	97.017
230.67	82.659
230.89	84.628
231.11	123.941
231.32	92.055
231.54	110.638
231.76	111.691
231.97	166.763
232.19	169.405
232.41	121.505
232.63	190.000
232.84	153.636
233.06	159.884
233.28	171.037
233.49	118.349
233.71	141.896
233.93	111.262
234.14	111.397
234.36	82.070
234.58	80.820
234.79	84.091
235.01	73.208
235.23	50.723
235.45	38.422
235.66	40.164
235.88	43.015
236.10	32.334
236.31	29.639
236.53	8.503
236.75	-83.333
236.96	-266.667
237.18	-66.667
237.40	54.717
237.61	-86.000
237.83	-1318.750
238.05	-441.026
238.26	-526.471
238.48	1788.235
238.70	141.102
238.91	196.847
239.13	160.793
239.35	138.832
239.56	183.333
239.78	1745.455
240.00	267.033
240.21	325.397
240.43	99.288
240.65	70.419
240.86	53.631
241.08	47.702
241.30	32.594
241.51	37.227
241.73	41.642
241.95	53.065
242.16	51.974
242.38	51.677
242.60	41.634
242.81	36.055
243.03	37.065
243.25	43.081
243.46	49.571
243.68	57.129
243.90	63.908
244.11	52.784
244.33	45.197
244.55	39.856
244.76	34.310
244.98	43.290
245.19	45.445
245.41	45.833
245.63	35.997
245.84	30.301
246.06	18.893
246.28	14.711
246.49	17.213
246.71	20.449
246.92	17.485
247.14	15.792
247.36	12.881
247.57	16.620
247.79	17.940
248.01	15.952
248.22	18.998
248.44	18.155
248.65	23.856
248.87	23.187
249.09	23.521
249.30	23.054
249.52	34.363
249.74	35.377
249.95	28.510
250.17	32.154
250.38	35.394
250.60	35.412
250.82	39.572
251.03	36.799
251.25	40.622
251.46	36.828
251.68	42.370
251.90	30.762
252.11	22.631
252.33	23.609
252.54	15.160
252.76	17.551
252.98	25.185
253.19	29.840
253.41	35.929
253.62	44.535
253.84	41.824
254.06	45.577
254.27	33.203
254.49	37.793
254.70	53.462
254.92	59.731
255.14	50.000
255.35	41.004
255.57	34.332
255.78	26.539
256.00	5.424
256.21	-0.147
256.43	-6.576
256.65	23.199
256.86	33.389
257.08	25.821
257.29	22.887
257.51	30.631
257.72	25.674
257.94	29.589
258.16	25.355
258.37	28.429
258.59	27.184
258.80	28.563
259.02	22.073
259.23	13.828
259.45	10.085
259.66	6.750
259.88	10.112
260.10	12.417
260.31	10.895
260.53	15.042
260.74	9.758
260.96	10.898
261.17	8.629
261.39	8.718
261.60	8.329
261.82	12.117
262.04	18.112
262.25	13.415
262.47	12.509
262.68	17.398
262.90	12.384
263.11	23.336
263.33	20.308
263.54	32.747
263.76	37.435
263.97	48.400
264.19	53.672
264.40	59.160
264.62	65.199
264.84	56.066
265.05	44.009
265.27	40.125
265.48	37.541
265.70	32.465
265.91	20.227
266.13	15.558
266.34	13.922
266.56	7.344
266.77	2.968
266.99	-11.941
267.20	-2.212
267.42	-2.951
267.63	4.191
267.85	2.612
268.06	3.265
268.28	1.647
268.49	1.546
268.71	-3.122
268.92	9.829
269.14	13.743
269.35	16.486
269.57	22.222
269.78	30.652
270.00	23.341
270.21	15.154
270.43	15.346
270.64	16.332
270.86	18.612
271.07	19.658
271.29	15.868
271.50	16.614
271.72	16.955
271.93	10.457
272.15	2.053
272.36	3.565
272.58	11.104
272.79	8.962
273.01	11.371
273.22	16.016
273.44	15.269
273.65	25.833
273.87	24.825
274.08	32.587
274.30	32.151
274.51	33.798
274.73	37.029
274.94	35.971
275.16	43.280
275.37	44.752
275.59	44.372
275.80	45.785
276.01	35.384
276.23	35.193
276.44	34.221
276.66	37.831
276.87	37.483
277.09	43.309
277.30	47.334
277.52	41.960
277.73	39.507
277.95	36.473
278.16	39.441
278.38	37.049
278.59	34.756
278.80	28.467
279.02	24.871
279.23	32.491
279.45	30.608
279.66	27.188
279.88	31.689
280.09	35.998
280.31	36.814
280.52	28.434
280.73	32.442
280.95	31.077
281.16	33.157
281.38	36.405
281.59	32.925
281.81	36.030
282.02	37.286
282.24	33.542
282.45	28.020
282.66	25.873
282.88	26.800
283.09	26.285
283.31	29.602
283.52	30.789
283.74	31.171
283.95	30.450
284.16	24.255
284.38	21.419
284.59	20.400
284.81	24.719
285.02	25.387
285.23	30.354
285.45	32.042
285.66	29.379
285.88	28.060
286.09	28.130
286.31	28.996
286.52	28.467
286.73	29.418
286.95	27.864
287.16	25.752
287.38	25.180
287.59	20.492
287.80	19.486
288.02	20.544
288.23	17.446
288.45	21.796
288.66	22.611
288.87	26.138
289.09	21.533
289.30	22.699
289.52	26.716
289.73	22.990
289.94	25.091
290.16	24.954
290.37	24.726
290.58	23.803
290.80	12.378
291.01	9.207
291.23	4.749
291.44	10.343
291.65	12.197
291.87	9.079
292.08	13.456
292.29	12.243
292.51	14.523
292.72	13.882
292.94	16.245
293.15	19.269
293.36	16.635
293.58	19.864
293.79	21.250
294.00	20.623
294.22	17.757
294.43	21.004
294.65	22.997
294.86	16.399
295.07	15.590
295.29	18.229
295.50	16.458
295.71	14.378
295.93	14.931
296.14	14.903
296.35	14.138
296.57	14.661
296.78	10.847
296.99	11.092
297.21	14.413
297.42	18.426
297.63	20.305
297.85	20.131
298.06	25.851
298.28	28.382
298.49	28.729
298.70	27.372
298.92	30.387
299.13	31.838
299.34	31.633
299.56	33.418
299.77	27.785
299.98	26.940
300.20	31.384
300.41	30.988
300.62	32.695
300.84	28.912
301.05	28.709
301.26	28.293
301.47	27.901
301.69	24.888
301.90	18.609
302.11	19.148
302.33	19.174
302.54	18.470
302.75	18.680
302.97	13.889
303.18	21.902
303.39	20.247
303.61	20.230
303.82	16.707
304.03	19.403
304.25	23.682
304.46	22.276
304.67	16.534
304.88	21.203
305.10	19.054
305.31	18.898
305.52	13.381
305.74	17.867
305.95	17.065
306.16	20.220
306.38	17.540
306.59	17.114
306.80	18.832
307.01	20.047
307.23	13.256
307.44	10.888
307.65	17.380
307.87	20.252
308.08	20.380
308.29	18.945
308.50	17.267
308.72	16.458
308.93	13.813
309.14	12.822
309.36	12.964
309.57	18.393
309.78	21.109
309.99	14.087
310.21	9.425
310.42	4.261
310.63	5.158
310.84	8.193
311.06	9.363
311.27	14.060
311.48	18.355
311.70	16.182
311.91	15.026
312.12	14.230
312.33	17.899
312.55	24.188
312.76	28.920
312.97	23.720
313.18	22.635
313.40	26.153
313.61	20.622
313.82	17.800
314.03	17.532
314.25	15.809
314.46	17.931
314.67	11.789
314.88	7.968
315.10	4.228
315.31	6.850
315.52	5.745
315.73	4.798
315.95	7.190
316.16	10.052
316.37	14.925
316.58	12.961
316.80	12.465
317.01	16.674
317.22	12.333
317.43	13.618
317.64	15.435
317.86	23.077
318.07	19.313
318.28	26.280
318.49	23.785
318.71	28.542
318.92	28.995
319.13	26.784
319.34	25.551
319.55	28.235
319.77	31.025
319.98	25.846
320.19	19.314
320.40	22.382
320.62	17.301
320.83	17.068
321.04	14.902
321.25	14.385
321.46	16.030
321.68	18.432
321.89	21.198
322.10	18.794
322.31	18.864
322.52	18.526
322.74	17.652
322.95	16.522
323.16	18.946
323.37	18.785
323.58	22.676
323.80	18.338
324.01	15.637
324.22	17.754
324.43	19.481
324.64	23.551
324.86	25.650
325.07	24.085
325.28	22.062
325.49	21.142
325.70	18.747
325.91	10.286
326.13	15.764
326.34	15.221
326.55	8.236
326.76	8.912
326.97	12.371
327.18	14.878
327.40	16.785
327.61	23.235
327.82	24.031
328.03	23.270
328.24	29.839
328.45	28.433
328.67	32.014
328.88	36.913
329.09	35.534
329.30	33.531
329.51	27.114
329.72	29.000
329.94	31.622
330.15	31.166
330.36	31.306
330.57	32.597
330.78	30.827
330.99	28.427
331.21	24.181
331.42	23.989
331.63	23.457
331.84	24.310
332.05	25.421
332.26	22.980
332.47	20.245
332.69	20.645
332.90	18.372
333.11	21.605
333.32	29.956
333.53	35.037
333.74	36.044
333.95	36.291
334.16	40.694
334.38	39.159
334.59	36.093
334.80	37.139
335.01	37.084
335.22	38.248
335.43	37.966
335.64	33.082
335.85	29.104
336.07	28.904
336.28	26.033
336.49	23.668
336.70	21.349
336.91	21.011
337.12	27.162
337.33	28.257
337.54	30.263
337.76	29.834
337.97	30.447
338.18	32.715
338.39	32.000
338.60	37.772
338.81	35.494
339.02	41.316
339.23	38.819
339.44	35.113
339.65	34.912
339.87	31.817
340.08	30.830
340.29	30.200
340.50	31.376
340.71	31.365
340.92	29.364
341.13	31.307
341.34	30.085
341.55	32.117
341.76	27.124
341.97	26.184
342.19	26.215
342.40	25.604
342.61	21.488
342.82	19.633
343.03	20.086
343.24	16.604
343.45	15.880
343.66	12.543
343.87	13.667
344.08	15.571
344.29	18.659
344.50	13.911
344.71	15.651
344.93	23.052
345.14	26.368
345.35	26.497
345.56	29.373
345.77	27.179
345.98	25.054
346.19	20.568
346.40	24.171
346.61	18.918
346.82	23.521
347.03	23.513
347.24	20.842
347.45	13.695
347.66	11.751
347.87	10.400
348.08	11.981
348.29	17.277
348.50	22.601
348.71	16.685
348.93	20.553
349.14	21.223
349.35	19.946
349.56	20.129
349.77	23.608
349.98	23.209
350.19	23.241
350.40	22.779
350.61	21.982
350.82	24.292
351.03	26.901
351.24	26.669
351.45	26.585
351.66	26.536
351.87	23.239
352.08	22.042
352.29	23.154
352.50	21.160
352.71	23.163
352.92	22.783
353.13	19.518
353.34	22.727
353.55	23.707
353.76	22.912
353.97	23.003
354.18	26.819
354.39	25.708
354.60	25.823
354.81	26.056
355.02	25.989
355.23	26.702
355.44	25.356
355.65	19.354
355.86	16.963
356.07	17.937
356.28	18.012
356.49	17.266
356.70	18.514
356.91	16.959
357.12	17.896
357.33	16.273
357.54	15.055
357.75	17.642
357.96	19.930
358.17	21.198
358.38	19.006
358.59	20.554
358.80	19.316
359.01	20.116
359.22	21.235
359.43	21.510
359.64	21.091
359.85	19.372
360.06	19.396
360.27	20.164
360.48	18.807
360.69	18.258
360.90	18.790
361.11	18.118
361.32	16.727
361.53	16.254
361.74	17.546
361.95	18.826
362.16	20.270
362.37	18.086
362.58	19.020
362.79	20.394
362.99	21.694
363.20	19.773
363.41	20.606
363.62	21.831
363.83	22.298
364.04	23.273
364.25	20.644
364.46	21.179
364.67	22.332
364.88	21.492
365.09	19.814
365.30	19.039
365.51	20.446
365.72	21.070
365.93	18.313
366.14	15.945
366.35	14.021
366.56	15.357
366.76	15.454
366.97	18.718
367.18	17.448
367.39	17.572
367.60	18.373
367.81	16.773
368.02	16.540
368.23	17.850
368.44	20.356
368.65	19.976
368.86	20.697
369.07	21.714
369.28	20.785
369.48	19.565
369.69	17.921
369.90	18.685
370.11	17.812
370.32	19.349
370.53	18.914
370.74	17.517
370.95	15.116
371.16	18.319
371.37	18.399
371.58	17.435
371.78	20.091
371.99	22.485
372.20	22.469
372.41	19.956
372.62	17.485
372.83	20.022
373.04	21.525
373.25	22.575
373.46	18.646
373.67	18.311
373.87	17.739
374.08	17.595
374.29	17.121
374.50	15.651
374.71	20.327
374.92	24.501
375.13	23.284
375.34	24.718
375.55	25.738
375.75	26.827
375.96	26.084
376.17	25.396
376.38	22.672
376.59	22.477
376.80	23.678
377.01	21.278
377.21	16.188
377.42	13.479
377.63	11.586
377.84	11.322
378.05	13.793
378.26	14.142
378.47	14.813
378.68	16.349
378.88	18.738
379.09	19.216
379.30	20.103
379.51	19.361
379.72	19.451
379.93	20.716
380.14	19.669
380.34	17.039
380.55	15.399
380.76	16.518
380.97	15.658
381.18	13.979
381.39	13.721
381.59	13.231
381.80	15.378
382.01	18.347
382.22	16.096
382.43	17.107
382.64	17.944
382.84	19.068
383.05	20.354
383.26	20.979
383.47	21.574
383.68	18.815
383.89	18.953
384.09	20.055
384.30	19.468
384.51	20.442
384.72	19.847
384.93	17.949
385.14	18.840
385.34	17.779
385.55	18.788
385.76	19.346
385.97	18.443
386.18	19.781
386.38	16.810
386.59	16.537
386.80	13.520
387.01	14.774
387.22	15.551
387.42	13.192
387.63	11.798
387.84	10.338
388.05	7.550
388.26	8.538
388.46	8.697
388.67	11.318
388.88	10.407
389.09	12.032
389.30	13.431
389.50	14.341
389.71	16.851
389.92	15.936
390.13	16.051
390.34	16.771
390.54	16.989
390.75	14.567
390.96	14.301
391.17	14.948
391.37	15.578
391.58	13.965
391.79	13.634
392.00	10.117
392.21	10.951
392.41	10.376
392.62	11.724
392.83	12.173
393.04	12.719
393.24	11.894
393.45	12.337
393.66	13.488
393.87	12.586
394.07	10.288
394.28	12.984
394.49	12.305
394.70	12.218
394.91	9.937
395.11	12.101
395.32	13.054
395.53	12.933
395.74	13.111
395.94	12.617
396.15	12.336
396.36	15.025
396.57	13.612
396.77	16.733
396.98	18.046
397.19	18.020
397.40	16.840
397.60	16.513
397.81	18.737
398.02	20.108
398.22	20.943
398.43	21.773
398.64	20.630
398.85	20.813
399.05	17.623
399.26	17.231
399.47	18.058
399.68	17.628
399.88	18.981
400.09	18.167
400.30	15.762
400.50	15.298
400.71	16.773
400.92	15.079
401.13	15.717
401.33	16.992
401.54	16.400
401.75	15.370
401.95	15.756
402.16	14.189
402.37	12.981
402.58	13.282
402.78	14.178
402.99	14.439
403.20	14.800
403.40	15.577
403.61	15.788
403.82	15.836
404.03	16.352
404.23	16.611
404.44	17.099
404.65	18.523
404.85	17.815
405.06	16.767
405.27	14.777
405.47	16.456
405.68	15.537
405.89	14.629
406.09	15.176
406.30	15.790
406.51	16.842
406.71	16.788
406.92	15.886
407.13	17.908
407.34	16.300
407.54	17.687
407.75	17.628
407.96	18.058
408.16	18.809
408.37	19.211
408.58	20.050
408.78	18.950
408.99	19.135
409.20	20.690
409.40	18.107
409.61	20.151
409.82	19.622
410.02	19.935
410.23	19.058
410.44	20.268
410.64	20.977
410.85	19.907
411.05	19.271
411.26	18.834
411.47	16.637
411.67	18.474
411.88	19.969
412.09	20.383
412.29	19.267
412.50	19.820
412.71	19.012
412.91	16.518
413.12	17.188
413.33	17.109
413.53	18.055
413.74	20.717
413.94	19.627
414.15	18.236
414.36	17.108
414.56	17.038
414.77	18.075
414.98	17.251
415.18	17.392
415.39	17.506
415.59	18.492
415.80	17.668
416.01	16.511
416.21	16.131
416.42	15.618
416.63	16.729
416.83	15.987
417.04	15.752
417.24	15.095
417.45	17.402
417.66	16.650
417.86	14.903
418.07	15.328
418.27	14.128
418.48	13.821
418.69	14.376
418.89	15.084
419.10	15.777
419.30	15.759
419.51	16.178
419.72	15.002
419.92	15.706
420.13	16.154
420.33	16.046
420.54	16.161
420.75	16.102
420.95	15.560
421.16	15.252
421.36	15.450
421.57	15.602
421.78	15.475
421.98	15.054
422.19	15.030
422.39	15.201
422.60	14.551
422.80	14.654
423.01	14.961
423.22	14.620
423.42	13.991
423.63	14.267
423.83	13.384
424.04	13.716
424.24	14.450
424.45	14.452
424.66	14.778
424.86	15.267
425.07	14.696
425.27	14.511
425.48	14.694
425.68	14.024
425.89	13.621
426.10	13.533
426.30	13.324
426.51	13.516
426.71	12.492
426.92	11.606
427.12	10.341
427.33	11.331
427.53	11.190
427.74	11.992
427.94	12.528
428.15	12.533
428.36	11.731
428.56	12.145
428.77	12.175
428.97	12.277
429.18	12.801
429.38	14.011
429.59	15.204
429.79	16.003
430.00	14.973
430.20	16.521
430.41	16.025
430.61	17.249
430.82	17.714
431.02	17.504
431.23	17.026
431.43	17.312
431.64	17.495
431.84	17.223
432.05	17.520
432.26	17.053
432.46	15.097
432.67	15.016
432.87	15.113
433.08	14.038
433.28	13.905
433.49	14.824
433.69	15.023
433.90	15.239
434.10	14.110
434.31	14.068
434.51	15.511
434.72	16.128
434.92	16.887
435.13	16.748
435.33	17.883
435.54	18.051
435.74	18.278
435.95	18.552
436.15	18.678
436.36	19.416
436.56	19.187
436.76	18.743
436.97	19.345
437.17	18.779
437.38	19.612
437.58	18.482
437.79	18.511
437.99	17.410
438.20	17.313
438.40	17.612
438.61	17.738
438.81	18.068
439.02	17.905
439.22	17.280
439.43	17.184
439.63	15.607
439.84	14.739
440.04	14.725
440.24	15.132
440.45	13.751
440.65	13.066
440.86	13.940
441.06	13.403
441.27	13.824
441.47	14.492
441.68	14.211
441.88	15.133
442.09	16.361
442.29	15.994
442.49	16.011
442.70	17.781
442.90	17.162
443.11	15.354
443.31	15.954
443.52	15.228
443.72	14.235
443.93	14.647
444.13	15.098
444.33	14.478
444.54	13.864
444.74	14.276
444.95	14.040
445.15	14.008
445.36	14.369
445.56	13.442
445.76	13.734
445.97	13.440
446.17	13.904
446.38	13.704
446.58	14.256
446.79	14.202
446.99	13.676
447.19	13.126
447.40	13.903
447.60	14.184
447.81	15.216
448.01	15.182
448.21	15.589
448.42	14.508
448.62	13.917
448.83	14.580
449.03	15.466
449.23	16.062
449.44	15.804
449.64	15.680
449.85	15.004
450.05	14.875
450.25	14.587
450.46	14.482
450.66	14.983
450.87	16.078
451.07	15.424
451.27	14.888
451.48	14.887
451.68	15.431
451.88	14.935
452.09	15.477
452.29	15.229
452.50	15.571
452.70	15.335
452.90	14.541
453.11	14.445
453.31	13.262
453.51	14.279
453.72	14.117
453.92	13.395
454.13	13.597
454.33	13.391
454.53	13.597
454.74	12.921
454.94	13.418
455.14	14.677
455.35	14.338
455.55	15.399
455.75	13.711
455.96	13.871
456.16	13.951
456.37	13.685
456.57	13.799
456.77	13.820
456.98	14.469
457.18	15.050
457.38	14.883
457.59	14.811
457.79	13.368
457.99	14.860
458.20	14.815
458.40	15.517
458.60	15.900
458.81	15.813
459.01	14.774
459.21	14.213
459.42	13.345
459.62	13.682
459.82	13.659
460.03	14.878
460.23	14.501
460.43	14.816
460.64	14.750
460.84	14.841
461.04	15.561
461.25	15.671
461.45	16.549
461.65	16.414
461.86	16.019
462.06	16.136
462.26	15.311
462.46	15.462
462.67	15.197
462.87	15.387
463.07	15.032
463.28	14.271
463.48	14.245
463.68	14.147
463.89	15.527
464.09	15.244
464.29	14.149
464.49	14.776
464.70	15.269
464.90	15.355
465.10	14.465
465.31	14.333
465.51	13.574
465.71	14.061
465.92	13.371
466.12	13.383
466.32	13.762
466.52	15.363
466.73	16.163
466.93	15.855
467.13	15.267
467.33	15.118
467.54	16.738
467.74	16.550
467.94	15.983
468.15	16.197
468.35	15.812
468.55	15.889
468.75	15.119
468.96	14.432
469.16	13.849
469.36	14.521
469.56	14.510
469.77	14.089
469.97	14.550
470.17	15.572
470.37	15.977
470.58	15.480
470.78	15.675
470.98	15.412
471.18	15.248
471.39	15.480
471.59	15.466
471.79	15.827
471.99	14.720
472.20	15.319
472.40	14.853
472.60	14.949
472.80	14.888
473.01	15.482
473.21	17.204
473.41	17.349
473.61	16.861
473.82	16.369
474.02	16.180
474.22	16.405
474.42	15.770
474.63	16.356
474.83	16.546
475.03	18.016
475.23	17.412
475.43	16.077
475.64	14.971
475.84	15.250
476.04	15.051
476.24	16.080
476.44	16.459
476.65	17.060
476.85	16.589
477.05	16.362
477.25	15.145
477.46	15.315
477.66	15.073
477.86	15.317
478.06	15.269
478.26	15.337
478.47	15.955
478.67	15.813
478.87	15.141
479.07	15.547
479.27	15.771
479.48	16.132
479.68	15.147
479.88	15.501
480.08	15.333
480.28	15.244
480.48	15.625
480.69	14.441
480.89	13.939
481.09	14.150
481.29	14.194
481.49	13.954
481.70	13.774
481.90	13.943
482.10	13.295
482.30	13.241
482.50	13.163
482.70	12.912
482.91	13.245
483.11	13.088
483.31	13.080
483.51	12.747
483.71	12.552
483.91	12.620
484.12	12.281
484.32	12.479
484.52	12.609
484.72	12.667
484.92	12.576
485.12	12.617
485.32	12.798
485.53	12.579
485.73	12.693
485.93	12.472
486.13	12.447
486.33	13.012
486.53	12.691
486.73	12.896
486.94	12.927
487.14	13.209
487.34	13.268
487.54	12.988
487.74	12.898
487.94	13.112
488.14	13.571
488.35	13.393
488.55	13.177
488.75	13.370
488.95	13.377
489.15	13.246
489.35	13.112
489.55	12.926
489.75	13.166
489.96	13.327
490.16	13.182
490.36	13.188
490.56	13.751
490.76	14.222
490.96	14.626
491.16	14.575
491.36	14.644
491.56	14.897
491.77	15.142
491.97	15.208
492.17	15.096
492.37	14.967
492.57	14.594
492.77	14.550
492.97	14.573
493.17	14.644
493.37	14.021
493.57	14.073
493.78	13.733
493.98	13.653
494.18	13.604
494.38	14.341
494.58	14.250
494.78	14.527
494.98	14.698
495.18	15.877
495.38	15.818
495.58	17.135
495.78	17.248
495.98	17.357
496.19	17.357
496.39	17.309
496.59	17.178
496.79	17.802
496.99	17.236
497.19	16.915
497.39	15.584
497.59	15.004
497.79	14.852
497.99	14.640
498.19	13.808
498.39	13.503
498.59	13.280
498.79	13.222
498.99	12.756
499.19	13.730
499.40	13.357
499.60	13.744
499.80	13.873
500.00	14.176
500.20	14.770
500.40	15.313
500.60	15.158
500.80	15.345
501.00	15.687
501.20	15.339
501.40	14.900
501.60	14.526
501.80	14.354
502.00	14.508
502.20	14.148
502.40	14.063
502.60	14.878
502.80	14.664
503.00	15.200
503.20	14.899
503.40	14.806
503.60	15.262
503.80	15.688
504.00	15.560
504.20	15.749
504.40	15.425
504.60	15.282
504.80	15.068
505.00	14.888
505.20	14.069
505.40	14.352
505.60	14.211
505.80	13.764
506.00	14.209
506.20	14.209
506.40	14.293
506.60	14.535
506.80	13.971
507.00	14.342
507.20	14.792
507.40	14.910
507.60	13.727
507.80	14.269
508.00	14.276
508.20	14.083
508.40	13.701
508.60	13.711
508.80	13.341
509.00	14.547
509.20	14.280
509.40	14.377
509.60	15.036
509.80	15.686
510.00	15.724
510.20	15.572
510.40	15.362
510.60	15.797
510.80	15.684
511.00	16.088
511.20	15.310
511.40	15.548
511.60	15.753
511.80	15.533
512.00	15.296
512.20	15.183
512.40	15.437
512.60	15.567
512.80	15.426
513.00	15.465
513.20	15.263
513.40	14.574
513.60	13.990
513.80	13.974
513.99	13.207
514.19	14.529
514.39	14.478
514.59	14.155
514.79	13.829
514.99	13.576
515.19	13.356
515.39	13.382
515.59	14.460
515.79	14.976
515.99	13.875
516.19	14.317
516.39	13.258
516.59	14.041
516.79	13.731
516.98	14.186
517.18	14.624
517.38	15.146
517.58	15.584
517.78	15.594
517.98	15.637
518.18	16.289
518.38	16.408
518.58	16.995
518.78	16.491
518.98	17.162
519.18	17.168
519.37	16.760
519.57	16.791
519.77	16.304
519.97	16.184
520.17	15.642
520.37	16.025
520.57	16.721
520.77	16.430
520.97	16.619
521.17	16.693
521.36	17.249
521.56	18.602
521.76	19.001
521.96	19.588
522.16	19.837
522.36	20.710
522.56	20.306
522.76	19.503
522.96	18.874
523.15	19.569
523.35	19.271
523.55	19.161
523.75	18.669
523.95	18.345
524.15	17.915
524.35	17.567
524.55	17.814
524.74	17.849
524.94	17.816
525.14	18.182
525.34	18.050
525.54	18.164
525.74	17.103
525.94	16.686
526.13	16.493
526.33	16.609
526.53	16.924
526.73	16.818
526.93	17.005
527.13	16.845
527.33	16.292
527.52	16.216
527.72	16.083
527.92	16.399
528.12	16.095
528.32	15.940
528.52	15.823
528.71	15.758
528.91	15.442
529.11	15.205
529.31	15.262
529.51	15.574
529.71	15.766
529.90	15.956
530.10	16.230
530.30	16.369
530.50	16.930
530.70	17.406
530.90	17.662
531.09	17.951
531.29	17.740
531.49	17.944
531.69	18.018
531.89	17.609
532.09	17.453
532.28	17.507
532.48	17.912
532.68	17.449
532.88	16.938
533.08	16.405
533.27	16.091
533.47	16.879
533.67	16.647
533.87	16.877
534.07	16.745
534.26	16.692
534.46	16.784
534.66	16.901
534.86	16.876
535.06	17.274
535.25	17.693
535.45	17.924
535.65	17.654
535.85	17.884
536.04	17.338
536.24	18.020
536.44	18.226
536.64	18.038
536.84	17.925
537.03	17.961
537.23	17.459
537.43	17.392
537.63	17.310
537.82	16.792
538.02	17.188
538.22	17.952
538.42	17.492
538.62	18.046
538.81	18.263
539.01	18.014
539.21	18.274
539.41	18.439
539.60	18.596
539.80	18.971
540.00	19.088
540.20	18.757
540.39	18.624
540.59	18.153
540.79	17.173
540.99	17.087
541.18	17.032
541.38	16.712
541.58	16.537
541.78	16.487
541.97	16.348
542.17	16.640
542.37	17.086
542.57	17.256
542.76	17.324
542.96	18.001
543.16	18.099
543.36	18.146
543.55	18.287
543.75	18.828
543.95	18.678
544.14	18.911
544.34	18.418
544.54	18.162
544.74	17.762
544.93	18.219
545.13	17.513
545.33	17.001
545.52	16.950
545.72	17.236
545.92	17.304
546.12	17.349
546.31	17.354
546.51	17.629
546.71	17.540
546.90	17.596
547.10	17.592
547.30	17.766
547.49	18.022
547.69	18.226
547.89	17.692
548.09	18.054
548.28	18.147
548.48	18.361
548.68	18.676
548.87	18.575
549.07	18.669
549.27	18.910
549.46	18.417
549.66	18.395
549.86	18.292
550.05	19.257
550.25	18.128
550.45	18.714
550.64	18.682
550.84	18.512
551.04	17.814
551.24	17.771
551.43	17.324
551.63	17.631
551.83	17.351
552.02	18.020
552.22	18.082
552.41	18.794
552.61	18.223
552.81	18.774
553.00	18.666
553.20	19.328
553.40	19.217
553.59	19.372
553.79	20.094
553.99	20.966
554.18	20.689
554.38	20.620
554.58	20.221
554.77	20.917
554.97	20.389
555.17	21.680
555.36	20.933
555.56	21.387
555.76	22.032
555.95	21.638
556.15	21.340
556.34	21.136
556.54	21.030
556.74	21.528
556.93	21.078
557.13	21.084
557.33	19.783
557.52	20.124
557.72	19.200
557.91	17.875
558.11	17.935
558.31	16.953
558.50	18.090
558.70	18.889
558.90	19.545
559.09	20.220
559.29	20.806
559.48	21.550
559.68	21.174
559.88	21.428
560.07	22.471
560.27	23.436
560.46	23.642
560.66	22.377
560.86	21.988
561.05	20.962
561.25	20.926
561.44	20.056
561.64	19.134
561.84	20.143
562.03	20.855
562.23	20.747
562.42	19.754
562.62	19.517
562.81	20.256
563.01	20.766
563.21	20.949
563.40	20.649
563.60	20.977
563.79	22.153
563.99	22.149
564.18	21.840
564.38	21.652
564.58	21.745
564.77	22.574
564.97	22.369
565.16	22.120
565.36	22.251
565.55	22.829
565.75	22.781
565.95	21.528
566.14	21.824
566.34	21.754
566.53	21.638
566.73	21.345
566.92	21.362
567.12	21.160
567.31	20.736
567.51	20.671
567.71	20.345
567.90	19.622
568.10	20.174
568.29	19.363
568.49	19.256
568.68	18.948
568.88	19.713
569.07	19.821
569.27	20.724
569.46	20.778
569.66	20.923
569.85	20.812
570.05	21.637
570.24	22.109
570.44	22.541
570.64	21.265
570.83	22.236
571.03	21.935
571.22	20.971
571.42	19.873
571.61	19.881
571.81	19.468
572.00	18.931
572.20	19.305
572.39	19.520
572.59	19.749
572.78	21.696
572.98	20.732
573.17	21.066
573.37	21.767
573.56	23.193
573.76	22.866
573.95	23.492
574.15	22.831
574.34	21.409
574.54	20.402
574.73	20.113
574.93	18.901
575.12	19.543
575.32	19.874
575.51	19.925
575.71	18.408
575.90	18.787
576.10	17.744
576.29	18.375
576.49	19.549
576.68	20.016
576.87	19.567
577.07	19.697
577.26	18.673
577.46	17.873
577.65	17.874
577.85	18.544
578.04	18.931
578.24	18.672
578.43	19.581
578.63	20.217
578.82	20.318
579.02	20.709
579.21	21.388
579.41	23.420
579.60	24.155
579.79	23.407
579.99	23.282
580.18	22.372
580.38	23.245
580.57	22.762
580.77	22.111
580.96	22.700
581.16	22.116
581.35	21.223
581.54	20.253
581.74	19.409
581.93	19.275
582.13	19.434
582.32	20.680
582.52	21.308
582.71	21.482
582.90	21.507
583.10	21.131
583.29	20.842
583.49	20.949
583.68	21.027
583.88	21.573
584.07	22.046
584.26	21.945
584.46	21.467
584.65	21.030
584.85	20.525
585.04	21.999
585.23	21.605
585.43	23.848
585.62	25.541
585.82	26.688
586.01	26.170
586.20	26.186
586.40	26.038
586.59	25.177
586.79	25.957
586.98	26.752
587.17	25.153
587.37	25.132
587.56	25.282
587.76	24.372
587.95	22.088
588.14	21.297
588.34	20.772
588.53	20.310
588.73	21.169
588.92	19.656
589.11	19.700
589.31	19.355
589.50	19.752
589.69	19.306
589.89	19.722
590.08	20.438
590.28	20.889
590.47	20.942
590.66	22.028
590.86	21.613
591.05	21.886
591.24	21.367
591.44	21.134
591.63	21.278
591.82	21.344
592.02	20.444
592.21	19.940
592.41	20.469
592.60	21.838
592.79	22.291
592.99	21.622
593.18	21.322
593.37	20.756
593.57	21.724
593.76	20.682
593.95	20.676
594.15	22.465
594.34	22.541
594.53	22.773
594.73	22.955
594.92	22.228
595.11	22.754
595.31	22.902
595.50	23.752
595.69	23.670
595.89	23.758
596.08	23.411
596.27	22.184
596.47	21.780
596.66	21.289
596.85	20.668
597.05	20.862
597.24	20.872
597.43	20.681
597.62	20.505
597.82	19.440
598.01	19.924
598.20	20.258
598.40	21.450
598.59	21.556
598.78	21.669
598.98	22.195
599.17	21.493
599.36	21.851
599.55	22.680
599.75	23.795
599.94	25.656
600.13	25.450
600.33	24.598
600.52	22.099
600.71	22.013
600.91	22.528
601.10	22.261
601.29	22.821
601.48	23.396
601.68	22.751
601.87	21.110
602.06	21.222
602.25	21.769
602.45	22.052
602.64	23.205
602.83	23.627
603.03	23.617
603.22	23.664
603.41	23.536
603.60	22.418
603.80	22.946
603.99	23.633
604.18	23.479
604.37	23.052
604.57	23.331
604.76	22.633
604.95	22.072
605.14	21.898
605.34	21.379
605.53	21.280
605.72	22.326
605.91	22.348
606.11	21.845
606.30	21.034
606.49	21.882
606.68	20.903
606.88	21.463
607.07	22.450
607.26	22.380
607.45	22.446
607.65	22.102
607.84	21.817
608.03	22.216
608.22	22.052
608.41	22.415
608.61	21.887
608.80	21.510
608.99	20.986
609.18	20.854
609.38	21.021
609.57	21.060
609.76	20.607
609.95	19.466
610.14	19.292
610.34	20.035
610.53	19.673
610.72	19.703
610.91	20.544
611.10	21.057
611.30	22.049
611.49	22.049
611.68	23.389
611.87	24.240
612.06	26.213
612.26	25.672
612.45	24.888
612.64	25.190
612.83	24.665
613.02	25.391
613.22	24.422
613.41	22.828
613.60	23.004
613.79	21.717
613.98	22.122
614.17	20.561
614.37	20.579
614.56	21.232
614.75	21.870
614.94	21.426
615.13	20.711
615.32	22.052
615.52	23.048
615.71	22.689
615.90	22.078
616.09	20.422
616.28	19.687
616.47	19.997
616.67	19.772
616.86	18.682
617.05	19.009
617.24	18.822
617.43	19.092
617.62	18.664
617.82	18.859
618.01	19.500
618.20	19.675
618.39	21.069
618.58	22.043
618.77	20.493
618.96	21.300
619.16	23.222
619.35	23.167
619.54	23.400
619.73	22.677
619.92	21.579
620.11	21.654
620.30	24.124
620.49	22.883
620.69	22.055
620.88	23.175
621.07	22.052
621.26	20.789
621.45	21.089
621.64	19.040
621.83	20.627
622.02	21.596
622.22	20.846
622.41	20.145
622.60	20.981
622.79	21.622
622.98	22.652
623.17	23.699
623.36	23.504
623.55	21.962
623.74	23.526
623.93	21.794
624.13	21.057
624.32	21.845
624.51	21.248
624.70	21.340
624.89	21.322
625.08	18.074
625.27	17.748
625.46	17.324
625.65	17.900
625.84	17.758
626.03	17.737
626.23	17.446
626.42	17.388
626.61	17.302
626.80	16.733
626.99	15.596
627.18	19.238
627.37	19.392
627.56	18.232
627.75	18.160
627.94	18.884
628.13	19.426
628.32	19.437
628.51	19.420
628.70	19.334
628.89	19.694
629.09	20.059
629.28	17.857
629.47	18.565
629.66	22.157
629.85	22.200
630.04	20.443
630.23	21.645
630.42	22.855
630.61	22.367
630.80	21.729
630.99	21.225
631.18	21.001
631.37	22.051
631.56	22.142
631.75	20.107
631.94	20.703
632.13	22.340
632.32	21.493
632.51	20.351
632.70	20.347
632.89	22.744
633.08	23.101
633.27	23.795
633.46	23.035
633.65	23.128
633.84	24.175
634.03	25.451
634.22	25.096
634.41	24.347
634.60	26.519
634.79	26.256
634.99	25.559
635.18	25.755
635.37	25.317
635.56	24.447
635.75	22.554
635.94	19.831
636.13	18.404
636.32	18.001
636.51	18.613
636.69	16.654
636.88	17.925
637.07	16.634
637.26	14.685
637.45	13.418
637.64	15.263
637.83	16.549
638.02	16.517
638.21	17.332
638.40	17.946
638.59	17.349
638.78	18.057
638.97	17.029
639.16	17.262
639.35	20.009
639.54	20.794
639.73	20.435
639.92	20.836
640.11	21.188
640.30	20.827
640.49	20.234
640.68	21.264
640.87	20.713
641.06	21.144
641.25	20.321
641.44	19.559
641.63	19.410
641.82	20.132
642.01	21.216
642.20	21.596
642.39	21.508
642.58	20.900
642.76	18.873
642.95	19.929
643.14	20.608
643.33	22.050
643.52	20.967
643.71	20.007
643.90	21.031
644.09	19.961
644.28	20.678
644.47	21.842
644.66	22.561
644.85	24.021
645.04	24.344
645.23	22.186
645.41	21.995
645.60	23.253
645.79	24.696
645.98	23.984
646.17	23.262
646.36	21.787
646.55	20.150
646.74	20.934
646.93	20.299
647.12	15.885
647.31	18.018
647.49	16.814
647.68	16.633
647.87	17.979
648.06	19.565
648.25	16.933
648.44	19.730
648.63	21.678
648.82	22.681
649.01	22.570
649.20	24.501
649.38	21.365
649.57	20.646
649.76	20.352
649.95	20.047
650.14	17.715
650.33	21.621
650.52	21.029
650.71	18.515
650.89	15.335
651.08	14.101
651.27	16.200
651.46	18.431
651.65	20.583
651.84	20.053
652.03	18.596
652.22	18.182
652.40	17.430
652.59	16.769
652.78	18.218
652.97	18.216
653.16	19.501
653.35	17.119
653.54	17.515
653.72	15.960
653.91	15.110
654.10	16.310
654.29	17.105
654.48	17.348
654.67	17.793
654.85	16.524
655.04	17.708
655.23	18.296
655.42	22.126
655.61	20.609
655.80	20.428
655.98	22.489
656.17	22.307
656.36	22.201
656.55	21.191
656.74	21.171
656.93	21.327
657.11	22.323
657.30	21.092
657.49	17.765
657.68	17.971
657.87	19.070
658.06	17.714
658.24	17.658
658.43	16.768
658.62	17.344
658.81	17.952
659.00	17.386
659.18	16.420
659.37	17.375
659.56	18.971
659.75	20.035
659.94	20.383
660.12	21.256
660.31	22.321
660.50	22.604
660.69	22.738
660.88	22.229
661.06	23.914
661.25	25.943
661.44	25.582
661.63	25.137
661.81	25.452
662.00	24.976
662.19	25.114
662.38	24.223
662.57	26.610
662.75	26.901
662.94	26.535
663.13	27.035
663.32	26.442
663.50	25.145
663.69	24.400
663.88	23.352
664.07	24.411
664.25	23.274
664.44	21.349
664.63	17.732
664.82	17.856
665.00	16.698
665.19	15.303
665.38	14.274
665.57	16.101
665.75	17.756
665.94	19.878
666.13	18.244
666.32	19.380
666.50	21.332
666.69	23.180
666.88	21.822
667.07	24.227
667.25	24.667
667.44	24.455
667.63	24.616
667.82	23.435
668.00	22.401
668.19	22.461
668.38	22.615
668.56	21.470
668.75	22.052
668.94	22.746
669.13	23.526
669.31	22.314
669.50	22.140
669.69	20.326
669.88	20.162
670.06	19.431
670.25	20.056
670.44	19.675
670.62	22.801
670.81	23.776
671.00	24.179
671.18	22.598
671.37	24.659
671.56	24.405
671.75	27.904
671.93	28.313
672.12	25.644
672.31	25.746
672.49	25.985
672.68	22.979
672.87	21.078
673.05	21.604
673.24	22.273
673.43	21.709
673.61	21.071
673.80	19.227
673.99	18.176
674.17	23.481
674.36	23.288
674.55	21.912
674.73	21.410
674.92	21.731
675.11	22.346
675.29	22.615
675.48	21.562
675.67	22.017
675.85	22.068
676.04	23.959
676.23	21.485
676.41	20.236
676.60	22.813
676.79	24.467
676.97	25.577
677.16	23.042
677.35	24.112
677.53	25.053
677.72	25.325
677.91	22.352
678.09	22.018
678.28	22.075
678.47	20.888
678.65	20.082
678.84	18.511
679.02	13.827
679.21	14.181
679.40	11.170
679.58	11.432
679.77	12.659
679.96	15.114
680.14	13.107
680.33	14.996
680.51	15.675
680.70	17.158
680.89	18.861
681.07	22.915
681.26	23.618
681.44	23.717
681.63	22.738
681.82	23.359
682.00	24.057
682.19	25.137
682.38	22.698
682.56	23.666
682.75	22.139
682.93	21.430
683.12	20.598
683.31	18.924
683.49	19.573
683.68	19.732
683.86	16.980
684.05	18.110
684.23	18.231
684.42	18.495
684.61	18.826
684.79	17.186
684.98	17.488
685.16	15.644
685.35	17.415
685.54	16.003
685.72	16.692
685.91	15.642
686.09	15.715
686.28	17.070
686.46	18.350
686.65	18.945
686.83	20.079
687.02	18.333
687.21	18.700
687.39	18.272
687.58	20.296
687.76	18.856
687.95	19.586
688.13	17.504
688.32	15.347
688.50	14.179
688.69	13.819
688.88	13.060
689.06	13.666
689.25	14.600
689.43	14.375
689.62	12.806
689.80	12.295
689.99	15.042
690.17	15.156
690.36	14.747
690.54	14.725
690.73	15.220
690.91	17.103
691.10	17.270
691.29	16.612
691.47	18.199
691.66	20.512
691.84	22.077
692.03	21.619
692.21	21.114
692.40	24.129
692.58	25.046
692.77	23.937
692.95	23.354
693.14	26.959
693.32	27.995
693.51	27.365
693.69	27.651
693.88	27.218
694.06	26.371
694.25	26.600
694.43	26.924
694.62	25.814
694.80	25.695
694.99	25.129
695.17	23.307
695.36	24.350
695.54	22.330
695.73	20.533
695.91	20.335
696.10	18.651
696.28	19.733
696.47	15.812
696.65	17.786
696.84	17.669
697.02	21.033
697.20	18.352
697.39	15.770
697.57	17.079
697.76	16.060
697.94	15.240
698.13	19.194
698.31	18.375
698.50	19.661
698.68	19.823
698.87	20.264
699.05	18.278
699.24	19.800
699.42	21.240
699.60	19.802
699.79	22.785
699.97	23.863
700.16	22.918
700.34	23.410
700.53	24.336
700.71	24.221
700.90	25.682
701.08	25.808
701.26	25.574
701.45	26.135
701.63	29.054
701.82	26.004
702.00	25.512
702.19	23.891
702.37	25.844
702.55	24.710
702.74	21.827
702.92	17.490
703.11	18.170
703.29	18.876
703.48	19.703
703.66	18.242
703.84	19.448
704.03	23.188
704.21	23.335
704.40	19.389
704.58	21.242
704.76	20.941
704.95	25.093
705.13	22.480
705.32	21.473
705.50	18.924
705.68	16.228
705.87	17.075
706.05	14.940
706.24	15.558
706.42	15.527
706.60	13.879
706.79	18.064
706.97	18.779
707.15	18.096
707.34	19.069
707.52	19.105
707.71	23.839
707.89	20.486
708.07	19.816
708.26	21.054
708.44	22.664
708.62	26.594
708.81	25.565
708.99	22.301
709.18	22.799
709.36	22.693
709.54	24.219
709.73	24.119
709.91	28.550
710.09	29.048
710.28	28.755
710.46	27.458
710.64	22.936
710.83	20.720
711.01	22.706
711.19	21.919
711.38	19.213
711.56	18.929
711.74	16.881
711.93	19.198
712.11	17.154
712.30	16.067
712.48	14.874
712.66	18.113
712.85	15.929
713.03	11.127
713.21	13.214
713.39	15.989
713.58	15.556
713.76	16.089
713.94	11.337
714.13	14.921
714.31	16.772
714.49	18.049
714.68	17.112
714.86	21.297
715.04	25.366
715.23	24.932
715.41	21.818
715.59	21.986
715.78	23.174
715.96	26.580
716.14	28.336
716.32	30.247
716.51	29.626
716.69	28.714
716.87	25.214
717.06	24.223
717.24	24.591
717.42	25.583
717.61	24.059
717.79	22.123
717.97	21.598
718.15	18.611
718.34	16.700
718.52	15.162
718.70	16.713
718.88	20.283
719.07	19.040
719.25	19.248
719.43	21.877
719.62	24.188
719.80	27.688
719.98	24.768
720.16	22.333
720.35	22.019
720.53	22.687
720.71	16.577
720.89	20.248
721.08	21.330
721.26	23.504
721.44	21.857
721.62	22.486
721.81	20.616
721.99	20.578
722.17	19.877
722.35	21.458
722.54	25.292
722.72	31.960
722.90	28.717
723.08	29.461
723.27	26.999
723.45	28.099
723.63	31.054
723.81	28.886
724.00	31.438
724.18	31.820
724.36	28.236
724.54	26.001
724.72	24.237
724.91	22.533
725.09	18.937
725.27	18.941
725.45	20.509
725.64	13.483
725.82	15.625
726.00	16.417
726.18	18.397
726.36	21.035
726.55	24.071
726.73	24.285
726.91	26.757
727.09	28.162
727.27	28.764
727.46	26.711
727.64	30.396
727.82	29.338
728.00	28.387
728.18	35.425
728.37	33.460
728.55	34.786
728.73	32.843
728.91	30.787
729.09	35.265
729.27	35.882
729.46	35.150
729.64	34.492
729.82	35.578
730.00	34.918
730.18	27.965
730.36	28.858
730.55	25.154
730.73	28.086
730.91	29.143
731.09	25.139
731.27	22.788
731.45	24.500
731.64	25.179
731.82	28.676
732.00	27.544
732.18	24.715
732.36	23.474
732.54	27.465
732.73	26.037
732.91	28.244
733.09	29.820
733.27	28.135
733.45	29.343
733.63	30.306
733.81	28.571
734.00	31.817
734.18	36.434
734.36	38.331
734.54	36.296
734.72	39.651
734.90	39.308
735.08	32.931
735.26	35.953
735.45	32.557
735.63	27.334
735.81	23.251
735.99	20.558
736.17	22.768
736.35	22.459
736.53	23.467
736.71	21.859
736.89	21.412
737.08	32.060
737.26	31.719
737.44	32.018
737.62	41.087
737.80	40.560
737.98	45.335
738.16	41.897
738.34	42.679
738.52	44.754
738.70	43.501
738.89	40.562
739.07	35.363
739.25	36.367
739.43	37.129
739.61	26.120
739.79	29.211
739.97	26.970
740.15	29.439
740.33	32.474
740.51	28.430
740.69	26.464
740.87	26.389
741.06	26.673
741.24	27.378
741.42	27.773
741.60	31.430
741.78	28.544
741.96	26.604
742.14	23.412
742.32	20.706
742.50	17.525
742.68	15.623
742.86	17.946
743.04	19.161
743.22	16.657
743.40	14.911
743.58	18.086
743.76	25.518
743.94	28.308
744.12	35.881
744.30	39.623
744.49	49.793
744.67	50.675
744.85	41.915
745.03	44.074
745.21	52.340
745.39	50.724
745.57	51.786
745.75	45.896
745.93	41.802
746.11	34.532
746.29	32.808
746.47	26.446
746.65	26.004
746.83	33.443
747.01	34.073
747.19	28.348
747.37	28.564
747.55	29.259
747.73	27.905
747.91	28.036
748.09	27.400
748.27	26.542
748.45	25.500
748.63	23.069
748.81	25.671
748.99	25.499
749.17	22.351
749.35	22.553
749.53	23.992
749.71	23.481
749.89	26.369
750.07	29.121
750.25	27.813
750.43	30.017
750.61	33.078
750.79	32.837
750.97	36.444
751.15	39.217
751.33	36.767
751.51	32.031
751.69	37.124
751.87	35.486
752.05	32.541
752.23	30.153
752.40	29.825
752.58	28.887
752.76	28.991
752.94	26.017
753.12	31.376
753.30	34.519
753.48	32.247
753.66	32.740
753.84	40.797
754.02	44.193
754.20	48.828
754.38	47.954
754.56	46.411
754.74	43.082
754.92	37.444
755.10	33.473
755.28	30.660
755.46	32.373
755.64	26.976
755.81	21.287
755.99	21.868
756.17	19.512
756.35	19.936
756.53	20.479
756.71	23.091
756.89	24.805
757.07	21.458
757.25	23.723
757.43	26.223
757.61	32.905
757.79	31.783
757.96	30.524
758.14	34.154
758.32	34.157
758.50	38.751
758.68	41.328
758.86	45.100
759.04	49.410
759.22	51.188
759.40	50.349
759.58	45.973
759.75	45.606
759.93	48.741
760.11	49.731
760.29	50.715
760.47	48.665
760.65	45.793
760.83	39.591
761.01	35.373
761.19	30.826
761.36	31.702
761.54	28.723
761.72	29.522
761.90	24.364
762.08	23.964
762.26	20.635
762.44	17.951
762.62	16.483
762.79	24.923
762.97	26.867
763.15	23.211
763.33	22.382
763.51	21.199
763.69	17.690
763.87	19.735
764.04	19.321
764.22	19.135
764.40	25.088
764.58	22.949
764.76	20.856
764.94	19.633
765.11	24.981
765.29	26.098
765.47	31.131
765.65	34.975
765.83	39.513
766.01	35.725
766.18	37.867
766.36	34.919
766.54	34.559
766.72	32.361
766.90	32.734
767.08	35.330
767.25	33.395
767.43	30.355
767.61	30.990
767.79	20.505
767.97	19.464
768.14	21.162
768.32	21.561
768.50	22.631
768.68	18.095
768.86	22.327
769.03	18.868
769.21	22.528
769.39	21.344
769.57	12.669
769.75	12.011
769.92	13.743
770.10	12.555
770.28	8.693
770.46	17.175
770.64	21.344
770.81	26.866
770.99	21.810
771.17	21.084
771.35	28.378
771.53	36.304
771.70	44.286
771.88	43.707
772.06	43.572
772.24	42.906
772.41	43.710
772.59	44.060
772.77	42.141
772.95	41.269
773.12	36.344
773.30	37.017
773.48	41.622
773.66	38.473
773.84	46.496
774.01	37.890
774.19	38.911
774.37	29.238
774.55	27.091
774.72	21.598
774.90	27.412
775.08	38.743
775.25	23.700
775.43	27.072
775.61	30.669
775.79	26.735
775.96	36.832
776.14	39.236
776.32	47.758
776.50	37.354
776.67	38.740
776.85	34.498
777.03	31.784
777.21	44.591
777.38	36.800
777.56	34.014
777.74	41.237
777.91	38.437
778.09	28.335
778.27	19.487
778.45	32.789
778.62	37.664
778.80	46.491
778.98	48.947
779.15	46.830
779.33	42.992
779.51	40.757
779.68	28.261
779.86	35.462
780.04	40.800
780.22	35.165
780.39	38.292
780.57	34.154
780.75	26.839
780.92	19.539
781.10	12.831
781.28	12.589
781.45	19.752
781.63	30.224
781.81	19.001
781.98	19.408
782.16	28.996
782.34	26.375
782.51	31.058
782.69	31.655
782.87	29.643
783.04	46.013
783.22	44.584
783.40	42.047
783.57	33.776
783.75	39.797
783.93	51.571
784.10	53.962
784.28	49.023
784.46	49.913
784.63	55.599
784.81	61.702
784.99	54.639
785.16	59.309
785.34	49.658
785.52	57.165
785.69	62.445
785.87	50.173
786.04	47.064
786.22	48.355
786.40	47.423
786.57	51.735
786.75	47.643
786.93	47.838
787.10	45.015
787.28	55.653
787.45	50.949
787.63	52.003
787.81	61.550
787.98	59.490
788.16	59.351
788.34	64.462
788.51	55.728
788.69	61.459
788.86	65.559
789.04	52.030
789.22	53.599
789.39	47.971
789.57	41.389
789.74	34.166
789.92	39.360
790.10	44.453
790.27	39.160
790.45	49.363
790.62	44.138
790.80	39.891
790.97	52.170
791.15	46.615
791.33	53.230
791.50	49.680
791.68	51.568
791.85	51.896
792.03	44.358
792.21	56.223
792.38	46.667
792.56	44.974
792.73	49.716
792.91	53.162
793.08	51.303
793.26	45.124
793.44	53.548
793.61	50.271
793.79	36.854
793.96	27.054
794.14	-19.383
794.31	-24.590
794.49	-21.033
794.66	-24.490
794.84	3.086
795.01	15.570
795.19	24.198
795.37	25.027
795.54	23.676
795.72	33.582
795.89	43.424
796.07	44.014
796.24	47.548
796.42	55.019
796.59	48.385
796.77	47.280
796.94	53.340
797.12	38.835
797.29	44.265
797.47	48.460
797.64	42.416
797.82	44.221
797.99	51.670
798.17	57.576
798.35	52.247
798.52	54.128
798.70	42.857
798.87	33.380
799.05	58.429
799.22	47.219
799.40	47.690
799.57	56.226
799.75	55.093
799.92	53.023
800.10	58.824
800.27	65.361
800.45	67.333
800.62	75.537
800.79	69.297
800.97	66.767
801.14	62.873
801.32	64.333
801.49	65.191
801.67	59.096
801.84	56.456
802.02	41.890
802.19	41.379
802.37	24.000
802.54	34.184
802.72	33.832
802.89	26.305
803.07	41.273
803.24	49.372
803.42	47.255
803.59	47.374
803.76	56.211
803.94	56.448
804.11	57.168
804.29	78.320
804.46	79.389
804.64	82.921
804.81	92.574
804.99	92.773
805.16	82.093
805.34	79.838
805.51	72.804
805.68	79.334
805.86	83.077
806.03	81.876
806.21	82.212
806.38	78.516
806.56	87.662
806.73	79.300
806.90	74.019
807.08	71.922
807.25	76.772
807.43	93.322
807.60	61.686
807.78	65.894
807.95	63.592
808.12	58.005
808.30	51.345
808.47	56.980
808.65	67.268
808.82	62.607
808.99	64.265
809.17	60.883
809.34	51.142
809.52	53.344
809.69	74.533
809.86	73.310
810.04	71.607
810.21	67.490
810.39	59.150
810.56	54.173
810.73	65.229
810.91	59.310
811.08	61.441
811.25	67.232
811.43	75.583
811.60	52.145
811.78	57.895
811.95	52.229
812.12	58.904
812.30	53.634
812.47	54.208
812.64	48.586
812.82	62.444
812.99	54.474
813.17	52.441
813.34	51.859
813.51	61.324
813.69	58.259
813.86	66.928
814.03	63.482
814.21	71.429
814.38	70.146
814.55	67.921
814.73	64.837
814.90	77.370
815.07	80.481
815.25	79.980
815.42	82.016
815.59	76.933
815.77	49.069
815.94	57.761
816.11	63.815
816.29	51.600
816.46	57.787
816.63	46.230
816.81	42.048
816.98	32.868
817.15	31.806
817.33	37.299
817.50	41.473
817.67	58.873
817.85	46.013
818.02	42.273
818.19	60.544
818.37	44.197
818.54	51.891
818.71	50.078
818.88	54.803
819.06	61.420
819.23	44.372
819.40	50.205
819.58	39.329
819.75	47.283
819.92	43.717
820.09	44.213
820.27	38.427
820.44	19.059
820.61	4.676
820.79	1.132
820.96	-4.618
821.13	-7.813
821.30	-5.807
821.48	7.482
821.65	4.918
821.82	0.477
822.00	-2.303
822.17	5.477
822.34	15.610
822.51	18.791
822.69	19.384
822.86	21.347
823.03	23.210
823.20	21.111
823.38	21.157
823.55	21.295
823.72	22.807
823.89	22.783
824.07	22.266
824.24	16.662
824.41	18.570
824.58	20.355
824.76	20.955
824.93	20.644
825.10	24.852
825.27	22.322
825.45	21.648
825.62	23.240
825.79	25.399
825.96	25.240
826.13	31.404
826.31	29.273
826.48	29.070
826.65	27.246
826.82	26.949
827.00	27.926
827.17	32.709
827.34	34.219
827.51	34.685
827.68	30.230
827.86	29.457
828.03	25.322
828.20	32.827
828.37	29.076
828.54	29.974
828.72	34.207
828.89	32.088
829.06	30.263
829.23	30.190
829.40	32.839
829.58	36.803
829.75	31.644
829.92	38.177
830.09	34.589
830.26	35.245
830.44	37.049
830.61	32.388
830.78	31.006
830.95	34.237
831.12	33.062
831.29	28.957
831.47	34.249
831.64	58.197
831.81	67.954
831.98	51.842
832.15	63.396
832.32	68.470
832.50	74.394
832.67	75.603
832.84	56.946
833.01	50.580
833.18	50.000
833.35	40.428
833.53	31.823
833.70	18.477
833.87	28.784
834.04	25.271
834.21	32.183
834.38	30.854
834.55	21.590
834.72	35.164
834.90	44.737
835.07	40.560
835.24	44.179
835.41	33.986
835.58	40.637
835.75	37.928
835.92	40.000
836.10	36.434
836.27	32.876
836.44	42.981
836.61	35.612
836.78	36.022
836.95	40.309
837.12	47.932
837.29	57.012
837.46	63.552
837.64	61.608
837.81	61.633
837.98	62.145
838.15	59.267
838.32	49.388
838.49	46.033
838.66	40.088
838.83	32.669
839.00	22.351
839.17	12.430
839.34	12.357
839.52	7.068
839.69	14.049
839.86	19.920
840.03	32.138
840.20	23.642
840.37	37.219
840.54	41.356
840.71	68.881
840.88	83.253
841.05	93.788
841.22	84.915
841.39	75.448
841.56	75.973
841.74	65.324
841.91	57.719
842.08	70.113
842.25	72.266
842.42	73.956
842.59	73.210
842.76	76.509
842.93	85.138
843.10	99.408
843.27	100.512
843.44	82.840
843.61	104.380
843.78	101.579
843.95	100.800
844.12	117.371
844.29	105.155
844.46	120.160
844.63	114.669
844.80	86.638
844.97	84.687
845.14	89.540
845.31	141.333
845.48	95.982
845.65	104.975
845.82	191.720
845.99	123.675
846.16	151.220
846.33	31.250
846.50	-21.429
846.67	-1400.000
846.85	364.706
847.02	119.658
847.19	66.346
847.36	108.491
847.53	463.158
847.70	187.313
847.87	663.636
848.03	133.010
848.20	151.196
848.37	123.656
848.54	82.083
848.71	74.583
848.88	201.942
849.05	182.443
849.22	183.838
849.39	111.111
849.56	17.045
849.73	-900.000
849.90	-65.957
850.07	98.571
850.24	-227.083
850.41	360.465
850.58	407.692
850.75	139.801
850.92	213.014
851.09	200.862
851.26	-305.556
851.43	162.319
851.60	83.117
851.77	915.385
851.94	220.879
852.11	128.814
852.28	-161.053
852.45	-264.384
852.62	-88.462
852.79	-6.509
852.96	-105.797
853.12	-226.250
853.29	-99.558
853.46	-77.879
853.63	-161.644
853.80	-127.143
853.97	-83.226
854.14	-44.128
854.31	-77.358
854.48	-291.429
854.65	-358.559
854.82	1137.736
854.99	425.000
855.16	196.552
855.33	186.522
855.49	166.184
855.66	200.694
855.83	129.851
856.00	106.090
856.17	100.510
856.34	72.308
856.51	31.841
856.68	-87.013
856.85	61.957
857.02	250.000
857.18	48.066
857.35	34.066
857.52	48.529
857.69	32.222
857.86	57.143
858.03	142.975
858.20	-206.122
858.37	-114.063
858.54	228.000
858.70	71.901
858.87	111.111
859.04	-209.302
859.21	709.091
859.38	1311.765
859.55	-447.727
859.72	441.791
859.89	184.874
860.05	91.419
860.22	82.555
860.39	99.196
860.56	105.935
860.73	90.278
860.90	85.558
861.07	83.807
861.23	73.536
861.40	67.235
861.57	78.302
861.74	120.266
861.91	206.726
862.08	1035.484
862.24	35400.000
862.41	-281.188
862.58	-216.438
862.75	-595.918
862.92	-480.392
863.09	700.000
863.25	-6271.429
863.42	575.000
863.59	439.623
863.76	250.400
863.93	192.611
864.10	200.000
864.26	318.280
864.43	138.686
864.60	242.308
864.77	217.416
864.94	1385.714
865.10	186.260
865.27	217.442
865.44	204.294
865.61	256.571
865.78	257.396
865.94	192.969
866.11	177.580
866.28	371.200
866.45	288.125
866.62	317.262
866.78	148.299
866.95	351.974
867.12	231.897
867.29	182.927
867.46	157.718
867.62	147.570
867.79	133.884
867.96	117.890
868.13	106.342
868.29	95.085
868.46	82.035
868.63	81.022
868.80	86.053
868.97	104.223
869.13	111.355
869.30	113.936
869.47	188.128
869.64	221.472
869.80	247.328
869.97	185.714
870.14	234.932
870.31	242.208
870.47	-1692.857
870.64	16000.000
870.81	-1150.000
870.98	294.872
871.14	-1860.000
871.31	89.231
871.48	144.248
871.65	137.153
871.81	130.599
871.98	120.548
872.15	135.628
872.31	138.148
872.48	154.074
872.65	151.943
872.82	207.092
872.98	90.311
873.15	72.441
873.32	45.494
873.48	51.867
873.65	51.121
873.82	85.824
873.99	62.780
874.15	72.364
874.32	70.570
874.49	50.826
874.65	40.157
874.82	71.923
874.99	130.769
875.16	151.835
875.32	187.324
875.49	232.075
875.66	231.818
875.82	186.885
875.99	285.075
876.16	-22800.000
876.32	7100.000
876.49	-428.395
876.66	7800.000
876.82	-841.304
876.99	-977.273
877.16	-1162.857
877.32	2228.571
877.49	-1165.789
877.66	786.364
877.82	306.383
877.99	243.825
878.16	198.944
878.32	149.790
878.49	112.723
878.66	110.460
878.82	99.616
878.99	96.357
879.16	98.319
879.32	66.941
879.49	71.800
879.66	86.648
879.82	100.000
879.99	142.791
880.16	562.222
880.32	403.419
880.49	611.688
880.65	-2576.923
880.82	704.918
880.99	415.190
881.15	7650.000
881.32	464.198
881.49	227.074
881.65	329.286
881.82	163.522
881.98	125.553
882.15	95.366
882.32	78.983
882.48	75.887
882.65	64.743
882.82	61.611
882.98	76.599
883.15	67.786
883.31	56.389
883.48	43.738
883.65	51.327
883.81	54.196
883.98	50.475
884.14	45.674
884.31	51.032
884.48	45.953
884.64	51.006
884.81	47.043
884.97	52.785
885.14	55.795
885.30	59.071
885.47	47.559
885.64	41.044
885.80	48.148
885.97	31.887
886.13	32.594
886.30	44.405
886.47	42.642
886.63	40.904
886.80	39.845
886.96	33.943
887.13	33.618
887.29	37.968
887.46	48.244
887.62	51.566
887.79	67.011
887.96	75.064
888.12	165.000
888.29	568.421
888.45	92.308
888.62	27.723
888.78	-131.818
>>>>>End Processed Spectral Data<<<<<
