SpectraSuite Data File
++++++++++++++++++++++++++++++++++++
Date: Mon Jan 12 10:55:19 EST 2009
User: Lex
Dark Spectrum Present: Yes
Reference Spectrum Present: Yes
Number of Sampled Component Spectra: 1
Spectrometers: USB4E03001
Integration Time (usec): 100000 (USB4E03001)
Spectra Averaged: 5 (USB4E03001)
Boxcar Smoothing: 5 (USB4E03001)
Correct for Electrical Dark: No (USB4E03001)
Strobe/Lamp Enabled: Yes (USB4E03001)
Correct for Detector Non-linearity: No (USB4E03001)
Correct for Stray Light: No (USB4E03001)
Number of Pixels in Processed Spectrum: 3648
>>>>>Begin Processed Spectral Data<<<<<
177.57	-60.000
177.79	-60.000
178.01	-60.000
178.23	600.000
178.45	88.136
178.66	248.684
178.88	213.930
179.10	195.167
179.32	172.277
179.54	151.804
179.76	113.842
179.98	115.427
180.20	146.364
180.42	143.175
180.64	416.304
180.86	821.154
181.08	255.128
181.30	284.293
181.52	351.825
181.74	1120.000
181.96	-2442.105
182.18	-925.714
182.40	-969.863
182.62	-3355.556
182.84	-1066.667
183.06	4066.667
183.28	850.746
183.50	-534.524
183.72	-728.571
183.94	-766.667
184.16	526.316
184.38	-498.529
184.60	-500.000
184.82	581.395
185.04	7575.000
185.26	450.000
185.48	-1718.750
185.69	-317.333
185.91	-277.419
186.13	209.524
186.35	177.049
186.57	-69.811
186.79	69.697
187.01	124.286
187.23	-69.565
187.45	51.887
187.67	0.725
187.89	91.398
188.11	-42.857
188.33	-93.103
188.55	94.737
188.77	-211.111
188.99	150.538
189.21	166.400
189.42	125.854
189.64	260.484
189.86	340.000
190.08	257.576
190.30	307.059
190.52	6850.000
190.74	192.021
190.96	462.121
191.18	-700.000
191.40	-114.208
191.62	-27.181
191.84	-36.760
192.06	-17.105
192.27	-46.320
192.49	-51.754
192.71	-633.333
192.93	-263.566
193.15	-59.406
193.37	-92.432
193.59	-70.435
193.81	-44.444
194.03	-246.575
194.25	-72.174
194.47	2350.000
194.68	-207.463
194.90	24.000
195.12	135.338
195.34	-355.263
195.56	18.056
195.78	155.172
196.00	219.000
196.22	124.615
196.44	76.871
196.66	37.500
196.87	23.404
197.09	28.571
197.31	173.913
197.53	-1825.000
197.75	3916.667
197.97	915.385
198.19	-323.913
198.41	-145.588
198.63	-63.842
198.84	-402.381
199.06	-133.621
199.28	-110.582
199.50	-162.222
199.72	-201.227
199.94	-752.830
200.16	-130.224
200.38	-82.770
200.59	-185.268
200.81	-142.349
201.03	-238.000
201.25	-177.606
201.47	-883.333
201.69	998.592
201.91	409.770
202.13	274.486
202.34	335.602
202.56	210.702
202.78	207.692
203.00	207.059
203.22	185.809
203.44	188.693
203.66	214.841
203.87	289.222
204.09	249.138
204.31	4320.000
204.53	-624.138
204.75	385.714
204.97	203.704
205.19	862.500
205.40	2270.000
205.62	862.500
205.84	229.032
206.06	-553.333
206.28	93.525
206.50	367.692
206.71	120.000
206.93	90.667
207.15	144.767
207.37	167.241
207.59	146.795
207.81	73.191
208.02	32.639
208.24	61.880
208.46	34.006
208.68	30.211
208.90	34.250
209.12	69.932
209.33	123.581
209.55	67.988
209.77	92.758
209.99	100.476
210.21	150.779
210.43	197.358
210.64	239.785
210.86	195.539
211.08	585.000
211.30	769.388
211.52	477.778
211.74	340.816
211.95	807.547
212.17	476.744
212.39	319.444
212.61	120.611
212.83	98.454
213.04	218.644
213.26	274.026
213.48	252.800
213.70	212.025
213.92	130.688
214.13	131.280
214.35	109.402
214.57	122.599
214.79	-918.182
215.01	-65.882
215.22	-815.625
215.44	333.858
215.66	511.905
215.88	241.379
216.10	665.789
216.31	-466.667
216.53	-101.562
216.75	-26.627
216.97	-26.009
217.19	-130.909
217.40	-1071.429
217.62	-276.543
217.84	-84.568
218.06	-98.026
218.27	-102.632
218.49	-225.234
218.71	-1682.353
218.93	-1233.333
219.15	-4510.000
219.36	-748.333
219.58	-863.265
219.80	6242.857
220.02	294.355
220.23	182.716
220.45	138.819
220.67	184.729
220.89	239.130
221.11	487.500
221.32	8380.000
221.54	-312.069
221.76	2708.333
221.98	466.197
222.19	-938.889
222.41	-760.714
222.63	-241.573
222.85	-728.205
223.06	-1402.778
223.28	-1403.125
223.50	-316.495
223.72	-597.727
223.93	405.556
224.15	411.940
224.37	-902.857
224.59	-1684.615
224.80	-720.513
225.02	-293.103
225.24	-34.615
225.46	28.283
225.67	-35.260
225.89	4316.667
226.11	495.890
226.33	446.154
226.54	723.077
226.76	385.981
226.98	1244.118
227.20	1093.939
227.41	262.987
227.63	301.493
227.85	185.874
228.06	131.235
228.28	130.326
228.50	101.786
228.72	104.865
228.93	98.352
229.15	90.000
229.37	75.309
229.59	62.704
229.80	63.253
230.02	64.844
230.24	65.463
230.45	62.784
230.67	58.237
230.89	61.488
231.11	68.877
231.32	86.874
231.54	94.326
231.76	91.441
231.97	140.751
232.19	148.159
232.41	105.914
232.63	133.043
232.84	106.970
233.06	105.523
233.28	107.012
233.49	115.291
233.71	69.113
233.93	43.107
234.14	46.140
234.36	29.592
234.58	14.202
234.79	22.424
235.01	37.720
235.23	39.639
235.45	28.117
235.66	14.344
235.88	6.916
236.10	0.631
236.31	-13.660
236.53	-24.150
236.75	-99.020
236.96	-250.000
237.18	-186.111
237.40	-158.491
237.61	186.000
237.83	-275.000
238.05	-66.667
238.26	-229.412
238.48	841.176
238.70	72.458
238.91	75.225
239.13	63.877
239.35	65.636
239.56	166.667
239.78	1909.091
240.00	212.088
240.21	315.873
240.43	103.559
240.65	89.005
240.86	77.467
241.08	81.400
241.30	65.700
241.51	66.822
241.73	71.994
241.95	55.578
242.16	52.433
242.38	50.589
242.60	41.320
242.81	40.905
243.03	35.199
243.25	27.674
243.46	45.472
243.68	62.813
243.90	65.803
244.11	53.505
244.33	49.236
244.55	48.404
244.76	45.936
244.98	48.346
245.19	54.555
245.41	37.209
245.63	32.674
245.84	22.982
246.06	9.837
246.28	5.196
246.49	11.605
246.71	12.137
246.92	16.061
247.14	13.960
247.36	15.642
247.57	18.674
247.79	29.450
248.01	35.614
248.22	42.902
248.44	39.005
248.65	44.356
248.87	46.373
249.09	54.906
249.30	49.282
249.52	54.559
249.74	55.660
249.95	52.947
250.17	51.062
250.38	51.745
250.60	47.357
250.82	58.473
251.03	51.886
251.25	51.644
251.46	50.775
251.68	58.797
251.90	52.226
252.11	52.898
252.33	50.084
252.54	38.041
252.76	38.353
252.98	31.746
253.19	26.845
253.41	35.202
253.62	38.917
253.84	37.066
254.06	19.037
254.27	20.392
254.49	12.690
254.70	12.564
254.92	17.381
255.14	3.111
255.35	4.651
255.57	14.631
255.78	4.378
256.00	1.530
256.21	1.770
256.43	22.222
256.65	36.576
256.86	45.021
257.08	45.785
257.29	39.126
257.51	51.932
257.72	45.431
257.94	35.541
258.16	29.463
258.37	28.960
258.59	21.420
258.80	19.199
259.02	7.626
259.23	-0.049
259.45	-0.045
259.66	2.571
259.88	1.866
260.10	6.681
260.31	9.772
260.53	14.165
260.74	9.385
260.96	11.934
261.17	12.304
261.39	16.890
261.60	20.681
261.82	16.871
262.04	26.896
262.25	35.077
262.47	39.263
262.68	31.640
262.90	38.932
263.11	46.829
263.33	46.872
263.54	43.201
263.76	55.636
263.97	63.300
264.19	84.972
264.40	83.842
264.62	66.595
264.84	47.703
265.05	58.180
265.27	42.500
265.48	37.761
265.70	34.369
265.91	34.688
266.13	29.676
266.34	19.185
266.56	13.279
266.77	10.283
266.99	1.695
267.20	7.817
267.42	5.742
267.63	5.197
267.85	4.381
268.06	4.198
268.28	5.032
268.49	-1.353
268.71	3.879
268.92	4.012
269.14	8.967
269.35	20.533
269.57	29.630
269.78	38.134
270.00	39.968
270.21	31.923
270.43	30.836
270.64	26.573
270.86	26.885
271.07	25.682
271.29	25.030
271.50	22.633
271.72	20.300
271.93	7.138
272.15	-2.437
272.36	-0.246
272.58	7.485
272.79	3.288
273.01	2.274
273.22	6.258
273.44	-1.424
273.65	5.037
273.87	4.669
274.08	0.746
274.30	11.111
274.51	13.721
274.73	7.246
274.94	10.863
275.16	16.599
275.37	28.515
275.59	24.215
275.80	30.646
276.01	20.238
276.23	27.556
276.44	32.857
276.66	28.470
276.87	28.029
277.09	37.929
277.30	32.982
277.52	36.495
277.73	26.278
277.95	29.509
278.16	24.804
278.38	31.038
278.59	27.805
278.80	20.270
279.02	20.000
279.23	29.293
279.45	27.133
279.66	26.637
279.88	21.880
280.09	25.567
280.31	22.028
280.52	22.978
280.73	27.775
280.95	29.429
281.16	31.922
281.38	35.613
281.59	33.742
281.81	33.901
282.02	34.615
282.24	36.311
282.45	34.276
282.66	35.317
282.88	32.296
283.09	31.086
283.31	28.451
283.52	29.079
283.74	25.734
283.95	20.035
284.16	21.555
284.38	22.203
284.59	19.761
284.81	17.561
285.02	18.537
285.23	22.924
285.45	18.977
285.66	17.436
285.88	17.806
286.09	20.902
286.31	23.704
286.52	22.466
286.73	24.259
286.95	23.016
287.16	27.626
287.38	27.342
287.59	24.925
287.80	29.041
288.02	31.175
288.23	29.815
288.45	30.143
288.66	29.432
288.87	28.583
289.09	22.198
289.30	21.090
289.52	22.032
289.73	21.154
289.94	21.938
290.16	24.725
290.37	21.701
290.58	22.192
290.80	21.233
291.01	19.174
291.23	17.105
291.44	19.339
291.65	20.123
291.87	16.386
292.08	19.802
292.29	19.214
292.51	12.150
292.72	12.890
292.94	14.105
293.15	15.994
293.36	17.885
293.58	19.328
293.79	19.300
294.00	22.008
294.22	24.004
294.43	23.281
294.65	19.604
294.86	20.365
295.07	20.973
295.29	17.062
295.50	10.580
295.71	9.408
295.93	10.597
296.14	14.032
296.35	10.448
296.57	9.993
296.78	8.259
296.99	8.929
297.21	8.545
297.42	11.130
297.63	18.605
297.85	17.737
298.06	18.967
298.28	18.859
298.49	15.270
298.70	14.193
298.92	13.857
299.13	13.051
299.34	16.667
299.56	17.985
299.77	13.848
299.98	9.224
300.20	19.849
300.41	21.934
300.62	24.865
300.84	22.063
301.05	29.212
301.26	28.717
301.47	32.675
301.69	28.339
301.90	26.520
302.11	28.590
302.33	26.913
302.54	21.789
302.75	22.960
302.97	18.959
303.18	23.623
303.39	22.950
303.61	22.437
303.82	17.681
304.03	20.125
304.25	17.576
304.46	18.849
304.67	18.407
304.88	21.024
305.10	17.401
305.31	20.734
305.52	19.524
305.74	20.360
305.95	18.871
306.16	25.463
306.38	27.664
306.59	28.677
306.80	26.028
307.01	26.588
307.23	21.814
307.44	19.912
307.65	21.663
307.87	25.105
308.08	25.226
308.29	28.101
308.50	20.917
308.72	17.084
308.93	14.436
309.14	16.388
309.36	14.841
309.57	18.125
309.78	15.893
309.99	13.679
310.21	7.882
310.42	4.565
310.63	0.978
310.84	6.334
311.06	7.283
311.27	13.636
311.48	14.131
311.70	15.063
311.91	15.463
312.12	19.142
312.33	19.158
312.55	18.904
312.76	21.946
312.97	21.280
313.18	20.493
313.40	21.149
313.61	21.113
313.82	21.453
314.03	18.022
314.25	20.832
314.46	21.517
314.67	16.812
314.88	22.403
315.10	21.268
315.31	23.308
315.52	20.649
315.73	21.486
315.95	22.222
316.16	22.946
316.37	25.418
316.58	24.267
316.80	19.561
317.01	15.898
317.22	11.190
317.43	9.708
317.64	8.419
317.86	15.820
318.07	16.575
318.28	18.455
318.49	18.363
318.71	24.575
318.92	19.261
319.13	22.714
319.34	24.869
319.55	26.961
319.77	26.022
319.98	24.673
320.19	18.918
320.40	20.693
320.62	18.339
320.83	19.603
321.04	15.879
321.25	16.762
321.46	16.072
321.68	20.900
321.89	23.436
322.10	22.856
322.31	23.188
322.52	25.426
322.74	26.945
322.95	25.522
323.16	22.048
323.37	23.706
323.58	27.607
323.80	26.688
324.01	24.674
324.22	24.589
324.43	27.588
324.64	26.223
324.86	27.008
325.07	24.933
325.28	21.829
325.49	27.542
325.70	25.905
325.91	22.646
326.13	25.094
326.34	25.419
326.55	21.625
326.76	18.651
326.97	24.360
327.18	25.244
327.40	25.197
327.61	26.784
327.82	24.287
328.03	24.168
328.24	25.192
328.45	26.917
328.67	28.822
328.88	30.460
329.09	32.827
329.30	30.379
329.51	24.846
329.72	21.829
329.94	27.063
330.15	26.863
330.36	30.071
330.57	32.316
330.78	29.882
330.99	29.301
331.21	29.121
331.42	28.447
331.63	32.407
331.84	32.903
332.05	36.610
332.26	34.718
332.47	29.142
332.69	26.531
332.90	29.760
333.11	28.200
333.32	29.592
333.53	27.920
333.74	29.668
333.95	27.913
334.16	29.173
334.38	28.687
334.59	27.098
334.80	33.598
335.01	36.877
335.22	33.958
335.43	39.620
335.64	38.126
335.85	40.645
336.07	42.335
336.28	40.127
336.49	39.221
336.70	41.619
336.91	40.793
337.12	40.709
337.33	37.653
337.54	37.155
337.76	29.726
337.97	31.590
338.18	31.043
338.39	27.186
338.60	28.777
338.81	33.287
339.02	32.782
339.23	35.351
339.44	33.551
339.65	36.537
339.87	36.116
340.08	36.736
340.29	35.847
340.50	34.103
340.71	34.914
340.92	33.229
341.13	29.725
341.34	27.672
341.55	27.099
341.76	25.216
341.97	24.106
342.19	23.919
342.40	24.992
342.61	24.034
342.82	24.600
343.03	28.186
343.24	27.020
343.45	29.603
343.66	27.797
343.87	25.596
344.08	25.417
344.29	25.766
344.50	25.763
344.71	24.090
344.93	29.234
345.14	29.571
345.35	27.865
345.56	29.247
345.77	27.895
345.98	28.431
346.19	26.543
346.40	27.051
346.61	25.654
346.82	25.516
347.03	29.118
347.24	25.804
347.45	21.018
347.66	17.740
347.87	17.987
348.08	17.072
348.29	17.539
348.50	23.750
348.71	22.359
348.93	23.354
349.14	22.136
349.35	19.678
349.56	16.797
349.77	19.540
349.98	20.081
350.19	18.948
350.40	15.574
350.61	17.313
350.82	16.780
351.03	17.359
351.24	19.293
351.45	21.129
351.66	18.746
351.87	16.580
352.08	17.296
352.29	20.924
352.50	19.790
352.71	23.193
352.92	20.320
353.13	19.579
353.34	20.208
353.55	19.613
353.76	19.420
353.97	22.258
354.18	24.792
354.39	24.279
354.60	22.428
354.81	22.545
355.02	23.803
355.23	26.500
355.44	24.407
355.65	22.877
355.86	21.116
356.07	23.171
356.28	24.538
356.49	25.962
356.70	25.642
356.91	26.706
357.12	27.853
357.33	24.777
357.54	23.688
357.75	24.021
357.96	26.072
358.17	24.540
358.38	21.582
358.59	20.600
358.80	18.880
359.01	20.161
359.22	18.001
359.43	20.611
359.64	22.843
359.85	21.650
360.06	23.529
360.27	22.585
360.48	25.435
360.69	25.673
360.90	25.754
361.11	25.650
361.32	24.190
361.53	24.123
361.74	21.974
361.95	20.188
362.16	21.248
362.37	18.746
362.58	20.134
362.79	18.583
362.99	18.298
363.20	17.261
363.41	18.704
363.62	22.593
363.83	20.932
364.04	22.018
364.25	20.690
364.46	20.388
364.67	20.756
364.88	19.315
365.09	16.535
365.30	15.756
365.51	16.415
365.72	16.124
365.93	12.449
366.14	16.499
366.35	15.503
366.56	17.647
366.76	14.923
366.97	18.486
367.18	17.422
367.39	21.001
367.60	20.552
367.81	18.484
368.02	17.579
368.23	16.864
368.44	15.958
368.65	16.145
368.86	19.777
369.07	23.207
369.28	22.712
369.48	21.935
369.69	19.917
369.90	22.009
370.11	24.279
370.32	23.196
370.53	24.345
370.74	20.312
370.95	19.448
371.16	18.229
371.37	16.143
371.58	15.587
371.78	18.225
371.99	20.754
372.20	21.228
372.41	20.311
372.62	20.768
372.83	20.528
373.04	23.812
373.25	25.731
373.46	21.570
373.67	22.476
373.87	20.800
374.08	19.107
374.29	20.720
374.50	19.113
374.71	19.743
374.92	20.217
375.13	20.450
375.34	20.954
375.55	20.354
375.75	22.344
375.96	23.733
376.17	26.405
376.38	23.953
376.59	21.986
376.80	22.906
377.01	21.817
377.21	21.497
377.42	19.189
377.63	17.243
377.84	15.734
378.05	17.136
378.26	16.791
378.47	14.980
378.68	19.176
378.88	20.037
379.09	20.196
379.30	20.433
379.51	19.341
379.72	21.365
379.93	22.306
380.14	22.192
380.34	19.489
380.55	18.622
380.76	21.838
380.97	20.877
381.18	18.891
381.39	16.708
381.59	17.870
381.80	18.685
382.01	18.532
382.22	19.582
382.43	18.572
382.64	20.263
382.84	22.050
383.05	19.133
383.26	19.868
383.47	21.330
383.68	21.193
383.89	20.546
384.09	21.588
384.30	21.044
384.51	19.592
384.72	21.316
384.93	20.965
385.14	19.257
385.34	20.474
385.55	20.415
385.76	20.670
385.97	21.628
386.18	23.186
386.38	21.222
386.59	20.741
386.80	20.371
387.01	21.534
387.22	21.843
387.42	21.360
387.63	22.315
387.84	20.840
388.05	17.809
388.26	16.060
388.46	15.927
388.67	17.676
388.88	16.963
389.09	15.971
389.30	14.960
389.50	12.962
389.71	14.789
389.92	11.130
390.13	10.619
390.34	10.544
390.54	8.693
390.75	7.938
390.96	7.525
391.17	9.907
391.37	11.740
391.58	12.166
391.79	15.517
392.00	13.286
392.21	14.934
392.41	14.557
392.62	15.864
392.83	18.914
393.04	18.522
393.24	18.531
393.45	18.350
393.66	18.974
393.87	18.781
394.07	16.692
394.28	17.506
394.49	17.046
394.70	17.402
394.91	17.479
395.11	19.872
395.32	19.799
395.53	20.000
395.74	17.981
395.94	17.225
396.15	17.366
396.36	16.750
396.57	17.348
396.77	18.513
396.98	19.488
397.19	19.145
397.40	17.914
397.60	15.716
397.81	15.826
398.02	18.210
398.22	19.682
398.43	16.923
398.64	17.874
398.85	15.748
399.05	15.292
399.26	15.238
399.47	17.717
399.68	17.067
399.88	19.122
400.09	17.374
400.30	15.233
400.50	13.364
400.71	16.032
400.92	14.248
401.13	15.272
401.33	14.492
401.54	14.750
401.75	11.696
401.95	11.171
402.16	9.819
402.37	11.273
402.58	12.021
402.78	11.874
402.99	10.859
403.20	12.222
403.40	12.293
403.61	12.806
403.82	12.419
404.03	12.169
404.23	13.745
404.44	15.115
404.65	14.920
404.85	14.370
405.06	13.109
405.27	13.380
405.47	14.788
405.68	14.777
405.89	15.005
406.09	16.195
406.30	18.243
406.51	17.846
406.71	18.052
406.92	18.268
407.13	20.637
407.34	21.370
407.54	23.824
407.75	22.333
407.96	23.503
408.16	23.605
408.37	22.173
408.58	19.916
408.78	19.135
408.99	17.920
409.20	18.032
409.40	13.992
409.61	15.057
409.82	11.978
410.02	12.504
410.23	11.553
410.44	11.741
410.64	11.853
410.85	14.759
411.05	13.685
411.26	13.770
411.47	12.976
411.67	16.356
411.88	15.184
412.09	17.463
412.29	17.728
412.50	18.256
412.71	18.677
412.91	18.014
413.12	16.612
413.33	17.567
413.53	18.558
413.74	19.792
413.94	18.846
414.15	20.756
414.36	18.253
414.56	17.514
414.77	17.538
414.98	15.192
415.18	16.753
415.39	16.537
415.59	16.376
415.80	14.691
416.01	15.336
416.21	15.099
416.42	13.376
416.63	14.155
416.83	13.434
417.04	12.872
417.24	13.514
417.45	12.626
417.66	13.482
417.86	13.265
418.07	14.183
418.27	13.086
418.48	11.954
418.69	13.341
418.89	13.739
419.10	14.295
419.30	14.450
419.51	15.391
419.72	15.335
419.92	15.392
420.13	16.327
420.33	16.926
420.54	17.139
420.75	18.001
420.95	17.467
421.16	17.903
421.36	17.803
421.57	17.799
421.78	18.090
421.98	17.599
422.19	17.481
422.39	16.892
422.60	16.916
422.80	16.892
423.01	17.072
423.22	16.731
423.42	15.738
423.63	16.071
423.83	15.708
424.04	15.448
424.24	16.134
424.45	16.276
424.66	15.389
424.86	14.732
425.07	14.140
425.27	14.236
425.48	14.531
425.68	14.040
425.89	13.542
426.10	13.781
426.30	13.766
426.51	13.922
426.71	12.835
426.92	13.204
427.12	13.213
427.33	14.011
427.53	13.531
427.74	14.254
427.94	15.458
428.15	15.867
428.36	16.394
428.56	16.355
428.77	16.330
428.97	17.715
429.18	18.855
429.38	18.344
429.59	18.703
429.79	18.997
430.00	19.398
430.20	21.064
430.41	21.752
430.61	20.990
430.82	21.192
431.02	21.442
431.23	20.545
431.43	20.376
431.64	21.105
431.84	20.553
432.05	19.470
432.26	19.802
432.46	17.151
432.67	16.588
432.87	16.876
433.08	15.355
433.28	15.808
433.49	15.950
433.69	15.565
433.90	15.610
434.10	15.246
434.31	16.730
434.51	16.998
434.72	18.054
434.92	18.730
435.13	19.072
435.33	20.244
435.54	19.489
435.74	19.564
435.95	20.372
436.15	21.200
436.36	22.356
436.56	22.209
436.76	21.652
436.97	21.545
437.17	21.233
437.38	20.943
437.58	20.937
437.79	20.093
437.99	20.304
438.20	20.528
438.40	19.597
438.61	18.839
438.81	18.014
439.02	17.692
439.22	17.836
439.43	17.518
439.63	17.005
439.84	16.207
440.04	16.682
440.24	16.389
440.45	15.781
440.65	15.230
440.86	15.458
441.06	15.913
441.27	15.917
441.47	15.963
441.68	16.162
441.88	16.504
442.09	16.553
442.29	16.492
442.49	15.953
442.70	17.196
442.90	17.248
443.11	17.467
443.31	16.691
443.52	16.608
443.72	15.877
443.93	15.213
444.13	15.360
444.33	15.363
444.54	15.227
444.74	15.898
444.95	14.556
445.15	14.198
445.36	13.678
445.56	14.137
445.76	14.130
445.97	14.415
446.17	15.262
446.38	15.574
446.58	15.883
446.79	16.289
446.99	15.804
447.19	16.022
447.40	16.873
447.60	17.580
447.81	18.684
448.01	18.303
448.21	17.643
448.42	16.446
448.62	16.497
448.83	17.893
449.03	18.607
449.23	19.648
449.44	20.269
449.64	20.720
449.85	20.584
450.05	19.952
450.25	19.547
450.46	20.209
450.66	21.041
450.87	19.827
451.07	18.934
451.27	17.992
451.48	17.313
451.68	17.677
451.88	16.598
452.09	16.580
452.29	16.539
452.50	17.575
452.70	18.158
452.90	18.181
453.11	18.231
453.31	17.812
453.51	17.803
453.72	18.514
453.92	17.649
454.13	18.458
454.33	18.483
454.53	18.508
454.74	18.274
454.94	16.680
455.14	16.887
455.35	17.645
455.55	16.537
455.75	17.174
455.96	15.956
456.16	15.269
456.37	14.936
456.57	13.968
456.77	13.103
456.98	12.598
457.18	13.821
457.38	13.530
457.59	12.915
457.79	13.564
457.99	13.634
458.20	14.121
458.40	14.276
458.60	13.995
458.81	14.467
459.01	14.430
459.21	14.708
459.42	14.613
459.62	14.998
459.82	14.875
460.03	14.937
460.23	14.350
460.43	14.266
460.64	14.311
460.84	14.868
461.04	15.007
461.25	15.174
461.45	15.494
461.65	14.679
461.86	13.934
462.06	14.246
462.26	13.978
462.46	14.420
462.67	14.514
462.87	15.276
463.07	15.659
463.28	15.778
463.48	14.529
463.68	14.777
463.89	17.122
464.09	17.129
464.29	16.547
464.49	17.114
464.70	18.018
464.90	18.863
465.10	18.969
465.31	18.067
465.51	16.817
465.71	16.948
465.92	14.984
466.12	13.827
466.32	14.915
466.52	17.147
466.73	17.344
466.93	16.590
467.13	15.700
467.33	14.805
467.54	15.652
467.74	15.754
467.94	16.549
468.15	18.067
468.35	17.671
468.55	16.323
468.75	15.522
468.96	15.988
469.16	15.485
469.36	16.029
469.56	16.005
469.77	15.267
469.97	16.275
470.17	15.791
470.37	15.739
470.58	15.318
470.78	15.848
470.98	15.586
471.18	14.749
471.39	14.518
471.59	13.937
471.79	13.310
471.99	12.803
472.20	12.318
472.40	13.102
472.60	13.338
472.80	12.990
473.01	13.826
473.21	14.272
473.41	14.226
473.61	13.530
473.82	14.370
474.02	15.604
474.22	16.291
474.42	16.993
474.63	16.547
474.83	16.565
475.03	17.623
475.23	17.205
475.43	16.144
475.64	15.616
475.84	16.524
476.04	15.778
476.24	15.821
476.44	14.701
476.65	14.542
476.85	14.435
477.05	15.047
477.25	14.394
477.46	14.015
477.66	14.202
477.86	14.961
478.06	15.252
478.26	14.780
478.47	14.875
478.67	16.741
478.87	15.838
479.07	16.533
479.27	15.971
479.48	16.562
479.68	15.941
479.88	16.535
480.08	16.218
480.28	16.281
480.48	16.805
480.69	16.483
480.89	15.405
481.09	15.982
481.29	15.408
481.49	15.355
481.70	15.407
481.90	16.218
482.10	15.755
482.30	15.719
482.50	15.350
482.70	14.895
482.91	14.887
483.11	14.745
483.31	14.810
483.51	14.718
483.71	14.672
483.91	14.546
484.12	14.282
484.32	14.410
484.52	14.557
484.72	14.510
484.92	14.733
485.12	14.927
485.32	14.972
485.53	14.630
485.73	14.617
485.93	14.557
486.13	14.656
486.33	14.583
486.53	14.399
486.73	13.867
486.94	14.064
487.14	14.062
487.34	14.201
487.54	14.115
487.74	14.289
487.94	14.378
488.14	14.191
488.35	14.068
488.55	14.213
488.75	14.225
488.95	14.446
489.15	13.659
489.35	13.635
489.55	13.303
489.75	13.630
489.96	13.451
490.16	13.366
490.36	13.184
490.56	13.323
490.76	13.782
490.96	14.112
491.16	14.362
491.36	14.966
491.56	15.163
491.77	15.097
491.97	14.713
492.17	15.346
492.37	15.877
492.57	16.291
492.77	16.764
492.97	16.895
493.17	16.906
493.37	16.901
493.57	17.189
493.78	16.925
493.98	16.794
494.18	17.319
494.38	17.343
494.58	16.505
494.78	15.870
494.98	15.639
495.18	15.367
495.38	15.668
495.58	16.162
495.78	16.946
495.98	17.137
496.19	17.742
496.39	17.591
496.59	17.059
496.79	17.549
496.99	18.000
497.19	17.844
497.39	17.495
497.59	16.465
497.79	15.717
497.99	14.806
498.19	14.531
498.39	14.866
498.59	14.477
498.79	14.667
498.99	14.254
499.19	14.587
499.40	13.968
499.60	13.892
499.80	14.649
500.00	15.341
500.20	16.687
500.40	17.815
500.60	16.612
500.80	17.983
501.00	18.533
501.20	18.585
501.40	18.489
501.60	19.022
501.80	19.684
502.00	19.031
502.20	18.482
502.40	17.638
502.60	17.062
502.80	17.949
503.00	17.155
503.20	16.669
503.40	15.919
503.60	17.385
503.80	17.384
504.00	17.293
504.20	17.523
504.40	17.533
504.60	17.273
504.80	17.078
505.00	16.884
505.20	16.797
505.40	16.670
505.60	17.660
505.80	16.879
506.00	16.722
506.20	16.178
506.40	16.611
506.60	16.900
506.80	16.977
507.00	17.078
507.20	16.703
507.40	17.488
507.60	16.995
507.80	16.863
508.00	16.168
508.20	16.050
508.40	15.937
508.60	15.976
508.80	15.382
509.00	15.445
509.20	15.566
509.40	15.846
509.60	15.456
509.80	15.525
510.00	15.691
510.20	15.979
510.40	15.879
510.60	15.944
510.80	15.728
511.00	16.471
511.20	16.525
511.40	16.319
511.60	16.086
511.80	16.490
512.00	17.147
512.20	16.856
512.40	16.849
512.60	16.980
512.80	17.164
513.00	17.181
513.20	16.630
513.40	16.615
513.60	16.550
513.80	16.482
513.99	15.945
514.19	16.546
514.39	16.469
514.59	15.798
514.79	16.521
514.99	16.289
515.19	15.992
515.39	16.209
515.59	16.210
515.79	17.003
515.99	17.168
516.19	17.355
516.39	16.033
516.59	15.738
516.79	15.983
516.98	15.389
517.18	16.717
517.38	17.225
517.58	16.924
517.78	17.119
517.98	16.274
518.18	16.079
518.38	15.619
518.58	16.070
518.78	16.347
518.98	16.500
519.18	16.694
519.37	15.624
519.57	15.390
519.77	15.507
519.97	14.437
520.17	14.599
520.37	15.342
520.57	16.178
520.77	15.847
520.97	15.851
521.17	16.451
521.36	16.704
521.56	17.357
521.76	17.281
521.96	17.288
522.16	17.834
522.36	18.379
522.56	17.968
522.76	17.673
522.96	18.488
523.15	19.900
523.35	19.469
523.55	19.706
523.75	20.183
523.95	20.522
524.15	21.297
524.35	21.393
524.55	21.384
524.74	21.258
524.94	20.803
525.14	20.679
525.34	20.128
525.54	20.121
525.74	19.253
525.94	18.874
526.13	18.838
526.33	18.507
526.53	18.929
526.73	18.483
526.93	18.394
527.13	18.428
527.33	17.628
527.52	17.573
527.72	17.482
527.92	17.785
528.12	17.599
528.32	17.396
528.52	17.333
528.71	17.299
528.91	17.393
529.11	17.439
529.31	17.556
529.51	17.884
529.71	17.941
529.90	17.830
530.10	18.079
530.30	17.926
530.50	18.334
530.70	18.392
530.90	18.274
531.09	18.335
531.29	17.941
531.49	18.048
531.69	18.031
531.89	17.930
532.09	18.420
532.28	18.258
532.48	18.932
532.68	18.615
532.88	18.763
533.08	18.796
533.27	18.581
533.47	19.042
533.67	18.829
533.87	18.997
534.07	18.967
534.26	18.950
534.46	18.676
534.66	18.521
534.86	18.558
535.06	18.454
535.25	18.486
535.45	18.403
535.65	18.553
535.85	18.033
536.04	17.938
536.24	18.258
536.44	18.338
536.64	18.552
536.84	18.642
537.03	18.862
537.23	18.490
537.43	18.913
537.63	19.136
537.82	18.580
538.02	19.731
538.22	19.964
538.42	19.700
538.62	19.698
538.81	19.772
539.01	19.252
539.21	19.780
539.41	20.590
539.60	19.832
539.80	19.999
540.00	20.334
540.20	19.416
540.39	18.857
540.59	18.655
540.79	18.020
540.99	17.596
541.18	17.661
541.38	16.863
541.58	16.280
541.78	16.422
541.97	16.578
542.17	16.852
542.37	17.414
542.57	17.984
542.76	18.070
542.96	18.471
543.16	18.872
543.36	19.158
543.55	19.842
543.75	20.299
543.95	20.745
544.14	20.770
544.34	20.466
544.54	20.444
544.74	20.032
544.93	20.110
545.13	20.175
545.33	20.000
545.52	19.947
545.72	19.742
545.92	20.024
546.12	19.579
546.31	19.107
546.51	19.207
546.71	18.841
546.90	18.576
547.10	18.557
547.30	18.628
547.49	18.811
547.69	18.556
547.89	18.493
548.09	18.905
548.28	19.321
548.48	19.543
548.68	19.919
548.87	19.969
549.07	21.111
549.27	21.377
549.46	21.199
549.66	21.782
549.86	22.912
550.05	23.206
550.25	22.252
550.45	21.663
550.64	21.756
550.84	21.724
551.04	22.433
551.24	21.637
551.43	21.599
551.63	21.263
551.83	20.490
552.02	20.572
552.22	20.718
552.41	21.495
552.61	21.449
552.81	21.796
553.00	20.868
553.20	19.889
553.40	20.118
553.59	19.866
553.79	20.117
553.99	20.989
554.18	20.808
554.38	20.434
554.58	19.861
554.77	21.099
554.97	21.156
555.17	22.763
555.36	22.836
555.56	22.592
555.76	22.863
555.95	23.327
556.15	23.070
556.34	22.569
556.54	22.014
556.74	21.601
556.93	21.866
557.13	21.761
557.33	19.983
557.52	21.172
557.72	21.702
557.91	21.355
558.11	20.460
558.31	19.436
558.50	18.963
558.70	20.747
558.90	22.413
559.09	22.686
559.29	22.269
559.48	24.181
559.68	22.820
559.88	22.631
560.07	22.861
560.27	24.752
560.46	24.890
560.66	25.209
560.86	24.537
561.05	22.762
561.25	21.997
561.44	22.659
561.64	21.766
561.84	22.946
562.03	23.134
562.23	23.107
562.42	22.521
562.62	22.703
562.81	22.514
563.01	22.706
563.21	23.374
563.40	23.433
563.60	22.713
563.79	22.879
563.99	22.403
564.18	21.595
564.38	21.848
564.58	21.551
564.77	21.897
564.97	22.556
565.16	22.269
565.36	22.436
565.55	21.869
565.75	21.980
565.95	21.635
566.14	21.512
566.34	22.014
566.53	21.631
566.73	21.237
566.92	21.370
567.12	20.835
567.31	21.126
567.51	20.444
567.71	21.165
567.90	21.794
568.10	21.880
568.29	21.883
568.49	21.697
568.68	21.976
568.88	23.363
569.07	23.602
569.27	24.158
569.46	23.875
569.66	24.877
569.85	23.802
570.05	23.809
570.24	23.685
570.44	22.934
570.64	23.314
570.83	23.808
571.03	23.171
571.22	22.495
571.42	21.909
571.61	21.902
571.81	21.555
572.00	21.814
572.20	21.394
572.39	21.296
572.59	22.919
572.78	22.920
572.98	22.341
573.17	22.309
573.37	22.100
573.56	22.509
573.76	22.361
573.95	21.800
574.15	21.986
574.34	22.087
574.54	22.721
574.73	21.550
574.93	21.324
575.12	21.614
575.32	20.420
575.51	21.054
575.71	20.778
575.90	20.797
576.10	20.701
576.29	19.128
576.49	18.604
576.68	18.699
576.87	18.625
577.07	18.426
577.26	17.994
577.46	17.682
577.65	18.228
577.85	18.754
578.04	19.213
578.24	19.695
578.43	21.666
578.63	23.461
578.82	22.841
579.02	23.867
579.21	24.263
579.41	25.327
579.60	25.500
579.79	24.201
579.99	24.203
580.18	23.353
580.38	23.847
580.57	22.772
580.77	20.918
580.96	21.488
581.16	20.417
581.35	19.769
581.54	19.199
581.74	19.220
581.93	19.761
582.13	20.107
582.32	21.445
582.52	21.611
582.71	21.716
582.90	22.911
583.10	22.980
583.29	22.941
583.49	23.512
583.68	22.441
583.88	24.496
584.07	24.324
584.26	23.309
584.46	22.389
584.65	22.272
584.85	22.215
585.04	22.990
585.23	22.030
585.43	23.110
585.62	23.936
585.82	25.563
586.01	24.021
586.20	23.702
586.40	25.183
586.59	24.712
586.79	25.909
586.98	27.077
587.17	25.417
587.37	25.475
587.56	25.084
587.76	23.753
587.95	23.048
588.14	23.648
588.34	24.344
588.53	23.132
588.73	24.360
588.92	23.533
589.11	22.945
589.31	22.877
589.50	23.693
589.69	23.686
589.89	24.786
590.08	24.695
590.28	24.907
590.47	25.100
590.66	25.216
590.86	24.409
591.05	24.504
591.24	24.264
591.44	24.036
591.63	23.979
591.82	23.009
592.02	20.908
592.21	22.048
592.41	22.365
592.60	22.363
592.79	23.650
592.99	22.631
593.18	21.798
593.37	23.051
593.57	24.608
593.76	23.549
593.95	24.593
594.15	26.584
594.34	25.631
594.53	25.113
594.73	24.402
594.92	24.116
595.11	26.587
595.31	26.476
595.50	26.013
595.69	25.484
595.89	25.107
596.08	26.035
596.27	25.948
596.47	26.020
596.66	26.439
596.85	25.578
597.05	24.656
597.24	23.779
597.43	23.186
597.62	22.833
597.82	21.631
598.01	22.739
598.20	21.493
598.40	21.264
598.59	19.549
598.78	19.403
598.98	21.087
599.17	20.373
599.36	18.989
599.55	20.215
599.75	20.473
599.94	21.724
600.13	21.736
600.33	22.044
600.52	20.919
600.71	22.519
600.91	22.479
601.10	22.357
601.29	23.884
601.48	24.861
601.68	23.813
601.87	22.886
602.06	23.277
602.25	22.189
602.45	22.677
602.64	23.141
602.83	23.004
603.03	23.246
603.22	22.512
603.41	22.124
603.60	22.747
603.80	23.566
603.99	24.618
604.18	23.704
604.37	24.605
604.57	24.659
604.76	24.818
604.95	24.406
605.14	24.141
605.34	24.039
605.53	23.777
605.72	24.052
605.91	23.533
606.11	22.050
606.30	23.334
606.49	24.733
606.68	24.306
606.88	24.751
607.07	25.863
607.26	25.008
607.45	24.832
607.65	24.989
607.84	24.531
608.03	25.669
608.22	26.475
608.41	25.519
608.61	22.746
608.80	22.701
608.99	21.346
609.18	20.489
609.38	20.633
609.57	22.335
609.76	22.212
609.95	21.306
610.14	21.382
610.34	22.805
610.53	23.272
610.72	23.565
610.91	25.197
611.10	26.261
611.30	28.084
611.49	30.157
611.68	31.100
611.87	31.762
612.06	32.541
612.26	31.609
612.45	30.290
612.64	29.547
612.83	29.878
613.02	28.324
613.22	28.166
613.41	26.717
613.60	24.193
613.79	22.313
613.98	22.470
614.17	21.261
614.37	21.348
614.56	21.633
614.75	23.496
614.94	23.147
615.13	22.658
615.32	22.414
615.52	23.449
615.71	23.313
615.90	21.769
616.09	19.799
616.28	21.733
616.47	22.696
616.67	22.826
616.86	21.134
617.05	20.879
617.24	20.216
617.43	20.829
617.62	20.216
617.82	21.161
618.01	22.693
618.20	23.669
618.39	23.241
618.58	22.722
618.77	22.714
618.96	22.905
619.16	23.801
619.35	25.552
619.54	24.666
619.73	24.032
619.92	24.445
620.11	24.352
620.30	25.243
620.49	25.341
620.69	24.186
620.88	23.658
621.07	23.364
621.26	24.816
621.45	24.925
621.64	24.199
621.83	24.880
622.02	25.457
622.22	24.724
622.41	24.138
622.60	23.284
622.79	25.425
622.98	26.388
623.17	27.298
623.36	24.571
623.55	22.872
623.74	23.886
623.93	22.972
624.13	23.261
624.32	23.946
624.51	23.482
624.70	23.150
624.89	22.462
625.08	19.463
625.27	19.589
625.46	19.375
625.65	20.398
625.84	21.125
626.03	22.083
626.23	19.865
626.42	19.592
626.61	19.560
626.80	20.744
626.99	19.685
627.18	22.113
627.37	21.389
627.56	22.106
627.75	21.271
627.94	20.815
628.13	19.857
628.32	21.245
628.51	20.425
628.70	21.856
628.89	19.939
629.09	21.069
629.28	20.367
629.47	20.731
629.66	21.839
629.85	21.176
630.04	19.035
630.23	19.730
630.42	20.561
630.61	20.536
630.80	18.761
630.99	20.159
631.18	19.479
631.37	19.414
631.56	19.792
631.75	19.195
631.94	20.761
632.13	22.704
632.32	22.664
632.51	21.568
632.70	22.267
632.89	24.624
633.08	24.762
633.27	25.569
633.46	25.906
633.65	26.288
633.84	25.512
634.03	25.397
634.22	25.630
634.41	24.973
634.60	24.925
634.79	25.273
634.99	23.787
635.18	22.950
635.37	21.854
635.56	21.598
635.75	19.344
635.94	17.930
636.13	17.612
636.32	16.385
636.51	17.021
636.69	16.209
636.88	16.355
637.07	16.164
637.26	16.589
637.45	18.232
637.64	18.986
637.83	20.043
638.02	21.446
638.21	22.083
638.40	23.654
638.59	23.200
638.78	23.383
638.97	23.263
639.16	23.648
639.35	23.884
639.54	23.811
639.73	22.905
639.92	24.158
640.11	25.143
640.30	24.526
640.49	25.558
640.68	25.784
640.87	25.208
641.06	24.583
641.25	25.508
641.44	24.697
641.63	22.359
641.82	22.098
642.01	20.430
642.20	18.026
642.39	18.166
642.58	17.843
642.76	18.113
642.95	18.196
643.14	19.342
643.33	19.208
643.52	18.505
643.71	19.014
643.90	18.895
644.09	19.979
644.28	21.832
644.47	21.663
644.66	21.539
644.85	22.064
645.04	23.058
645.23	21.232
645.41	21.836
645.60	24.258
645.79	25.034
645.98	25.237
646.17	24.979
646.36	23.425
646.55	24.374
646.74	23.017
646.93	22.109
647.12	21.006
647.31	22.570
647.49	19.908
647.68	18.302
647.87	17.356
648.06	19.565
648.25	18.022
648.44	21.443
648.63	21.932
648.82	22.717
649.01	22.186
649.20	22.883
649.38	22.095
649.57	22.371
649.76	21.845
649.95	23.667
650.14	21.054
650.33	21.007
650.52	17.427
650.71	14.458
650.89	14.774
651.08	13.909
651.27	13.822
651.46	13.679
651.65	14.021
651.84	14.911
652.03	13.151
652.22	14.221
652.40	15.241
652.59	15.491
652.78	18.235
652.97	18.751
653.16	20.287
653.35	19.848
653.54	20.865
653.72	20.783
653.91	19.241
654.10	21.513
654.29	21.423
654.48	21.491
654.67	21.459
654.85	20.465
655.04	19.716
655.23	20.023
655.42	21.961
655.61	20.496
655.80	20.239
655.98	21.651
656.17	21.186
656.36	21.823
656.55	21.649
656.74	23.396
656.93	21.682
657.11	20.322
657.30	18.424
657.49	15.989
657.68	16.392
657.87	17.665
658.06	17.714
658.24	17.361
658.43	16.192
658.62	15.378
658.81	14.835
659.00	16.806
659.18	18.224
659.37	18.649
659.56	19.759
659.75	20.686
659.94	19.763
660.12	20.417
660.31	20.865
660.50	21.734
660.69	23.112
660.88	22.185
661.06	21.446
661.25	20.382
661.44	22.608
661.63	23.323
661.81	22.668
662.00	22.563
662.19	22.326
662.38	22.417
662.57	23.204
662.75	22.581
662.94	25.005
663.13	24.456
663.32	23.676
663.50	21.107
663.69	20.862
663.88	21.047
664.07	21.936
664.25	21.764
664.44	19.992
664.63	16.766
664.82	17.794
665.00	15.005
665.19	16.866
665.38	19.472
665.57	20.481
665.75	21.872
665.94	21.813
666.13	19.034
666.32	17.870
666.50	18.533
666.69	20.367
666.88	20.338
667.07	22.530
667.25	21.886
667.44	19.634
667.63	18.846
667.82	16.282
668.00	14.739
668.19	18.366
668.38	20.017
668.56	17.125
668.75	18.026
668.94	16.303
669.13	17.280
669.31	17.669
669.50	19.006
669.69	19.280
669.88	19.137
670.06	20.072
670.25	18.467
670.44	17.231
670.62	20.586
670.81	22.367
671.00	25.421
671.18	23.811
671.37	24.157
671.56	23.590
671.75	24.546
671.93	25.079
672.12	24.086
672.31	23.728
672.49	24.080
672.68	22.273
672.87	20.803
673.05	19.325
673.24	17.483
673.43	17.262
673.61	16.280
673.80	16.436
673.99	17.184
674.17	20.398
674.36	22.304
674.55	23.403
674.73	25.463
674.92	25.630
675.11	24.989
675.29	28.158
675.48	25.830
675.67	25.214
675.85	24.231
676.04	22.617
676.23	23.688
676.41	23.262
676.60	21.694
676.79	22.114
676.97	20.309
677.16	20.380
677.35	20.234
677.53	21.281
677.72	24.297
677.91	22.622
678.09	23.982
678.28	20.918
678.47	17.850
678.65	18.826
678.84	17.607
679.02	15.729
679.21	16.690
679.40	15.071
679.58	17.390
679.77	18.129
679.96	20.188
680.14	20.221
680.33	20.732
680.51	21.883
680.70	22.375
680.89	23.552
681.07	25.070
681.26	24.632
681.44	25.378
681.63	24.765
681.82	25.743
682.00	27.453
682.19	26.714
682.38	27.034
682.56	25.388
682.75	24.879
682.93	22.493
683.12	23.955
683.31	22.081
683.49	22.354
683.68	22.449
683.86	18.475
684.05	18.349
684.23	18.363
684.42	17.291
684.61	21.212
684.79	19.161
684.98	21.381
685.16	17.844
685.35	20.712
685.54	18.650
685.72	17.884
685.91	18.320
686.09	15.865
686.28	16.507
686.46	18.246
686.65	19.090
686.83	19.954
687.02	20.718
687.21	22.391
687.39	22.761
687.58	25.050
687.76	24.946
687.95	25.888
688.13	23.175
688.32	24.251
688.50	23.253
688.69	21.752
688.88	20.589
689.06	17.814
689.25	18.297
689.43	17.164
689.62	15.769
689.80	14.802
689.99	14.182
690.17	18.385
690.36	16.537
690.54	15.095
690.73	15.096
690.91	18.189
691.10	20.695
691.29	18.455
691.47	17.536
691.66	19.919
691.84	21.864
692.03	22.804
692.21	20.993
692.40	23.427
692.58	28.420
692.77	28.823
692.95	29.198
693.14	30.294
693.32	32.126
693.51	31.773
693.69	28.829
693.88	26.043
694.06	26.812
694.25	26.504
694.43	26.024
694.62	19.815
694.80	18.582
694.99	16.523
695.17	14.199
695.36	13.945
695.54	15.811
695.73	19.021
695.91	19.981
696.10	19.083
696.28	17.842
696.47	17.480
696.65	20.754
696.84	19.203
697.02	21.473
697.20	23.421
697.39	25.612
697.57	24.370
697.76	19.987
697.94	17.654
698.13	17.052
698.31	19.929
698.50	19.378
698.68	17.523
698.87	19.704
699.05	18.473
699.24	17.521
699.42	17.996
699.60	17.835
699.79	21.587
699.97	23.595
700.16	24.459
700.34	23.338
700.53	24.281
700.71	25.862
700.90	25.262
701.08	25.460
701.26	25.697
701.45	24.973
701.63	26.114
701.82	22.737
702.00	22.212
702.19	23.261
702.37	24.987
702.55	24.063
702.74	24.104
702.92	25.044
703.11	26.566
703.29	23.122
703.48	22.883
703.66	23.844
703.84	26.058
704.03	26.035
704.21	24.554
704.40	20.190
704.58	17.615
704.76	16.208
704.95	15.665
705.13	13.746
705.32	17.304
705.50	16.906
705.68	14.235
705.87	17.634
706.05	20.276
706.24	21.433
706.42	25.206
706.60	27.374
706.79	29.769
706.97	30.141
707.15	29.399
707.34	27.737
707.52	26.499
707.71	27.917
707.89	24.431
708.07	23.697
708.26	23.364
708.44	22.189
708.62	21.360
708.81	20.586
708.99	18.702
709.18	20.219
709.36	21.300
709.54	22.962
709.73	24.267
709.91	27.685
710.09	25.536
710.28	23.160
710.46	20.743
710.64	22.666
710.83	19.340
711.01	21.735
711.19	20.662
711.38	20.525
711.56	20.704
711.74	18.170
711.93	16.412
712.11	12.966
712.30	14.976
712.48	17.313
712.66	18.637
712.85	18.928
713.03	16.676
713.21	19.335
713.39	18.699
713.58	16.906
713.76	19.525
713.94	23.050
714.13	27.815
714.31	28.560
714.49	27.186
714.68	24.837
714.86	28.016
715.04	33.353
715.23	30.751
715.41	31.735
715.59	33.180
715.78	29.024
715.96	24.828
716.14	23.281
716.32	24.114
716.51	24.431
716.69	26.743
716.87	24.005
717.06	22.371
717.24	23.179
717.42	22.491
717.61	20.687
717.79	21.135
717.97	23.482
718.15	23.330
718.34	23.880
718.52	22.626
718.70	22.077
718.88	22.978
719.07	18.498
719.25	17.661
719.43	17.737
719.62	17.731
719.80	18.411
719.98	17.773
720.16	17.444
720.35	14.382
720.53	18.806
720.71	15.161
720.89	15.735
721.08	18.904
721.26	16.696
721.44	17.069
721.62	21.360
721.81	23.115
721.99	20.621
722.17	17.075
722.35	19.028
722.54	21.839
722.72	24.905
722.90	26.859
723.08	22.119
723.27	25.950
723.45	22.529
723.63	26.636
723.81	26.209
724.00	26.262
724.18	29.121
724.36	28.069
724.54	23.246
724.72	20.112
724.91	21.956
725.09	28.629
725.27	27.289
725.45	30.396
725.64	21.808
725.82	25.537
726.00	27.251
726.18	30.773
726.36	29.600
726.55	35.310
726.73	35.297
726.91	30.423
727.09	27.066
727.27	33.066
727.46	33.347
727.64	34.156
727.82	30.548
728.00	27.721
728.18	29.419
728.37	31.832
728.55	26.182
728.73	30.871
728.91	33.356
729.09	33.675
729.27	30.098
729.46	29.668
729.64	28.820
729.82	31.570
730.00	33.836
730.18	29.958
730.36	26.390
730.55	26.314
730.73	22.300
730.91	20.125
731.09	17.976
731.27	19.610
731.45	21.107
731.64	22.355
731.82	20.105
732.00	19.664
732.18	20.264
732.36	22.149
732.54	23.329
732.73	25.155
732.91	29.120
733.09	30.787
733.27	29.164
733.45	29.645
733.63	32.301
733.81	34.203
734.00	34.661
734.18	34.196
734.36	32.415
734.54	30.854
734.72	31.778
734.90	31.379
735.08	28.412
735.26	24.706
735.45	24.715
735.63	16.884
735.81	15.320
735.99	18.404
736.17	22.581
736.35	24.900
736.53	26.246
736.71	23.900
736.89	18.682
737.08	24.790
737.26	28.232
737.44	28.299
737.62	35.025
737.80	29.032
737.98	24.788
738.16	22.283
738.34	21.863
738.52	21.279
738.70	20.554
738.89	23.204
739.07	24.054
739.25	24.676
739.43	23.034
739.61	18.651
739.79	23.156
739.97	27.307
740.15	27.813
740.33	31.031
740.51	30.942
740.69	33.572
740.87	32.930
741.06	30.678
741.24	31.979
741.42	33.177
741.60	31.476
741.78	27.621
741.96	23.001
742.14	21.670
742.32	18.763
742.50	20.234
742.68	19.003
742.86	19.514
743.04	11.508
743.22	10.403
743.40	6.223
743.58	6.107
743.76	16.017
743.94	14.064
744.12	16.314
744.30	21.456
744.49	26.139
744.67	29.965
744.85	23.617
745.03	30.257
745.21	28.365
745.39	32.989
745.57	40.346
745.75	36.609
745.93	38.276
746.11	45.863
746.29	41.565
746.47	41.774
746.65	35.603
746.83	45.047
747.01	44.605
747.19	46.432
747.37	41.658
747.55	40.712
747.73	37.984
747.91	42.100
748.09	35.972
748.27	35.140
748.45	34.950
748.63	37.666
748.81	37.033
748.99	34.858
749.17	32.261
749.35	34.625
749.53	35.367
749.71	31.105
749.89	31.955
750.07	34.121
750.25	31.868
750.43	29.567
750.61	23.275
750.79	21.235
750.97	26.957
751.15	27.060
751.33	27.575
751.51	27.763
751.69	34.519
751.87	29.804
752.05	27.304
752.23	31.587
752.40	26.043
752.58	26.827
752.76	30.330
752.94	25.339
753.12	30.016
753.30	29.864
753.48	29.101
753.66	26.861
753.84	32.627
754.02	32.738
754.20	34.549
754.38	34.542
754.56	35.344
754.74	30.773
754.92	33.547
755.10	31.839
755.28	29.878
755.46	23.008
755.64	19.920
755.81	19.016
755.99	19.803
756.17	19.144
756.35	22.376
756.53	22.333
756.71	25.427
756.89	23.154
757.07	16.252
757.25	20.301
757.43	24.732
757.61	27.389
757.79	22.893
757.96	24.832
758.14	25.246
758.32	25.154
758.50	29.108
758.68	32.023
758.86	36.252
759.04	42.416
759.22	39.776
759.40	41.135
759.58	44.163
759.75	41.595
759.93	42.617
760.11	42.144
760.29	45.195
760.47	44.181
760.65	39.507
760.83	37.111
761.01	34.602
761.19	35.000
761.36	32.568
761.54	28.143
761.72	30.178
761.90	25.683
762.08	25.488
762.26	26.284
762.44	27.516
762.62	25.737
762.79	27.044
762.97	30.730
763.15	27.080
763.33	24.820
763.51	28.801
763.69	27.754
763.87	29.234
764.04	28.097
764.22	25.477
764.40	23.251
764.58	24.106
764.76	25.100
764.94	22.202
765.11	26.612
765.29	30.379
765.47	28.708
765.65	30.196
765.83	33.493
766.01	33.039
766.18	34.819
766.36	32.914
766.54	31.740
766.72	32.854
766.90	30.848
767.08	34.037
767.25	35.508
767.43	36.871
767.61	40.735
767.79	37.662
767.97	36.245
768.14	39.878
768.32	49.380
768.50	50.091
768.68	46.603
768.86	50.679
769.03	49.512
769.21	54.486
769.39	52.675
769.57	44.313
769.75	41.149
769.92	38.070
770.10	33.798
770.28	28.807
770.46	32.316
770.64	34.225
770.81	39.241
770.99	34.444
771.17	25.182
771.35	26.554
771.53	38.350
771.70	44.490
771.88	49.795
772.06	54.343
772.24	53.667
772.41	52.336
772.59	45.212
772.77	41.841
772.95	38.058
773.12	42.272
773.30	40.410
773.48	42.005
773.66	43.172
773.84	45.592
774.01	41.006
774.19	51.561
774.37	54.260
774.55	60.932
774.72	52.712
774.90	62.579
775.08	70.450
775.25	65.727
775.43	68.730
775.61	65.135
775.79	57.262
775.96	61.905
776.14	45.294
776.32	52.059
776.50	45.005
776.67	56.198
776.85	45.961
777.03	34.378
777.21	34.615
777.38	23.086
777.56	25.397
777.74	38.488
777.91	34.952
778.09	42.227
778.27	31.179
778.45	42.492
778.62	47.103
778.80	48.390
778.98	53.075
779.15	60.380
779.33	61.575
779.51	54.514
779.68	46.480
779.86	50.295
780.04	52.889
780.22	55.621
780.39	57.143
780.57	49.563
780.75	52.676
780.92	53.328
781.10	43.114
781.28	39.539
781.45	44.907
781.63	57.050
781.81	54.883
781.98	45.312
782.16	34.323
782.34	30.289
782.51	32.115
782.69	26.799
782.87	25.109
783.04	33.731
783.22	40.734
783.40	38.748
783.57	17.347
783.75	17.249
783.93	36.876
784.10	51.038
784.28	44.300
784.46	44.493
784.63	49.854
784.81	55.319
784.99	47.610
785.16	46.083
785.34	44.017
785.52	58.869
785.69	57.540
785.87	52.855
786.04	49.255
786.22	52.194
786.40	64.433
786.57	62.683
786.75	57.072
786.93	55.718
787.10	54.252
787.28	55.799
787.45	47.077
787.63	46.918
787.81	45.683
787.98	40.885
788.16	35.520
788.34	21.673
788.51	21.964
788.69	18.455
788.86	13.696
789.04	18.508
789.22	23.054
789.39	16.501
789.57	17.963
789.74	22.302
789.92	27.280
790.10	35.170
790.27	38.473
790.45	43.146
790.62	46.735
790.80	48.946
790.97	49.367
791.15	47.644
791.33	64.320
791.50	58.829
791.68	65.406
791.85	66.966
792.03	69.050
792.21	69.541
792.38	62.182
792.56	59.149
792.73	61.320
792.91	63.700
793.08	60.494
793.26	42.263
793.44	48.226
793.61	45.750
793.79	57.042
793.96	56.112
794.14	48.678
794.31	44.262
794.49	48.757
794.66	51.247
794.84	45.679
795.01	45.443
795.19	58.642
795.37	57.174
795.54	40.460
795.72	49.534
795.89	44.391
796.07	41.134
796.24	39.152
796.42	36.965
796.59	28.154
796.77	28.117
796.94	31.421
797.12	22.524
797.29	25.213
797.47	40.349
797.64	32.959
797.82	41.994
797.99	41.754
798.17	44.805
798.35	61.685
798.52	82.045
798.70	87.656
798.87	78.303
799.05	92.429
799.22	84.347
799.40	74.782
799.57	62.003
799.75	59.606
799.92	59.698
800.10	64.466
800.27	58.629
800.45	48.556
800.62	43.198
800.79	52.541
800.97	58.233
801.14	57.680
801.32	51.667
801.49	61.132
801.67	53.864
801.84	61.013
802.02	57.405
802.19	60.188
802.37	45.857
802.54	57.653
802.72	47.296
802.89	31.315
803.07	29.308
803.24	28.033
803.42	44.020
803.59	52.188
803.76	47.579
803.94	49.504
804.11	48.761
804.29	64.137
804.46	60.848
804.64	53.708
804.81	64.661
804.99	74.639
805.16	86.003
805.34	58.187
805.51	44.974
805.68	42.480
805.86	37.063
806.03	28.776
806.21	18.910
806.38	19.320
806.56	44.481
806.73	25.948
806.90	26.522
807.08	6.006
807.25	30.769
807.43	36.986
807.60	39.349
807.78	44.530
807.95	58.426
808.12	67.488
808.30	68.946
808.47	64.633
808.65	84.665
808.82	85.100
808.99	110.663
809.17	115.525
809.34	122.983
809.52	121.656
809.69	127.334
809.86	126.343
810.04	128.393
810.21	123.384
810.39	124.954
810.56	127.087
810.73	101.830
810.91	92.414
811.08	75.000
811.25	82.910
811.43	89.571
811.60	79.758
811.78	65.579
811.95	63.270
812.12	70.646
812.30	58.418
812.47	47.149
812.64	60.202
812.82	62.983
812.99	62.807
813.17	52.712
813.34	41.822
813.51	44.146
813.69	51.066
813.86	45.026
814.03	32.857
814.21	38.561
814.38	36.390
814.55	39.068
814.73	37.488
814.90	44.321
815.07	51.989
815.25	51.466
815.42	60.023
815.59	50.133
815.77	46.543
815.94	59.403
816.11	69.285
816.29	68.667
816.46	48.087
816.63	37.213
816.81	33.455
816.98	37.054
817.15	37.361
817.33	18.048
817.50	32.333
817.67	52.535
817.85	45.359
818.02	46.061
818.19	39.966
818.37	59.777
818.54	73.374
818.71	89.922
818.88	79.370
819.06	95.988
819.23	89.005
819.40	69.168
819.58	55.183
819.75	62.408
819.92	51.872
820.09	60.598
820.27	50.681
820.44	32.235
820.61	25.824
820.79	28.292
820.96	20.181
821.13	18.457
821.30	31.663
821.48	32.599
821.65	25.180
821.82	19.391
822.00	15.570
822.17	23.570
822.34	28.771
822.51	25.378
822.69	21.196
822.86	22.218
823.03	20.634
823.20	19.105
823.38	21.742
823.55	23.683
823.72	24.604
823.89	23.849
824.07	19.512
824.24	19.073
824.41	18.766
824.58	21.643
824.76	21.343
824.93	25.418
825.10	25.919
825.27	22.415
825.45	20.986
825.62	25.025
825.79	30.560
825.96	31.199
826.13	30.562
826.31	34.772
826.48	29.651
826.65	30.484
826.82	30.280
827.00	31.535
827.17	33.983
827.34	31.451
827.51	29.625
827.68	27.932
827.86	28.606
828.03	27.682
828.20	26.453
828.37	30.294
828.54	29.160
828.72	31.717
828.89	23.735
829.06	24.947
829.23	37.444
829.40	39.339
829.58	39.505
829.75	38.303
829.92	38.362
830.09	35.468
830.26	40.206
830.44	48.984
830.61	54.478
830.78	60.435
830.95	65.854
831.12	52.264
831.29	51.709
831.47	49.068
831.64	59.836
831.81	71.686
831.98	75.395
832.15	69.470
832.32	51.679
832.50	59.091
832.67	73.056
832.84	55.820
833.01	46.288
833.18	50.356
833.35	47.562
833.53	40.453
833.70	30.571
833.87	34.367
834.04	29.122
834.21	37.862
834.38	26.585
834.55	18.743
834.72	32.177
834.90	41.194
835.07	32.469
835.24	40.896
835.41	42.019
835.58	46.042
835.75	33.668
835.92	38.987
836.10	32.558
836.27	32.803
836.44	31.114
836.61	25.148
836.78	24.910
836.95	30.482
837.12	27.968
837.29	28.464
837.46	35.800
837.64	48.961
837.81	52.980
837.98	61.525
838.15	53.122
838.32	55.714
838.49	43.291
838.66	41.762
838.83	33.882
839.00	25.819
839.17	33.371
839.34	21.958
839.52	8.111
839.69	6.130
839.86	3.054
840.03	7.317
840.20	2.790
840.37	27.107
840.54	27.966
840.71	41.958
840.88	59.420
841.05	61.970
841.22	69.831
841.39	69.355
841.56	76.430
841.74	77.181
841.91	60.000
842.08	59.586
842.25	52.148
842.42	70.270
842.59	75.982
842.76	72.629
842.93	59.660
843.10	57.791
843.27	68.430
843.44	66.420
843.61	55.839
843.78	66.140
843.95	86.000
844.12	107.981
844.29	102.749
844.46	115.968
844.63	126.653
844.80	128.664
844.97	172.500
845.14	193.305
845.31	305.333
845.48	245.536
845.65	272.139
845.82	303.822
845.99	167.845
846.16	201.220
846.33	195.833
846.50	162.857
846.67	-2180.000
846.85	517.647
847.02	223.077
847.19	91.827
847.36	61.321
847.53	152.632
847.70	124.627
847.87	168.182
848.03	89.320
848.20	66.029
848.37	80.108
848.54	69.167
848.71	54.167
848.88	6.796
849.05	57.252
849.22	225.253
849.39	171.111
849.56	229.545
849.73	4266.667
849.90	297.872
850.07	-282.857
850.24	-456.250
850.41	779.070
850.58	866.667
850.75	194.527
850.92	266.438
851.09	211.207
851.26	-1011.111
851.43	330.435
851.60	223.377
851.77	2715.385
851.94	412.088
852.11	632.203
852.28	-322.105
852.45	-384.932
852.62	-257.692
852.79	-120.118
852.96	-362.319
853.12	-202.500
853.29	-73.894
853.46	-24.545
853.63	-90.868
853.80	-124.286
853.97	-71.290
854.14	-37.722
854.31	-105.660
854.48	-321.905
854.65	-316.216
854.82	1045.283
854.99	531.250
855.16	232.328
855.33	238.696
855.49	221.256
855.66	211.806
855.83	127.239
856.00	113.462
856.17	101.020
856.34	105.385
856.51	61.692
856.68	45.455
856.85	79.348
857.02	1016.667
857.18	82.873
857.35	194.505
857.52	94.853
857.69	58.889
857.86	154.286
858.03	106.612
858.20	-353.061
858.37	-320.313
858.54	824.000
858.70	238.843
858.87	400.000
859.04	-369.767
859.21	793.939
859.38	1658.824
859.55	-627.273
859.72	482.090
859.89	287.395
860.05	97.030
860.22	81.818
860.39	101.609
860.56	90.504
860.73	97.454
860.90	108.315
861.07	92.341
861.23	106.089
861.40	88.447
861.57	103.774
861.74	155.482
861.91	254.260
862.08	1541.935
862.24	38000.000
862.41	-294.059
862.58	-147.260
862.75	-397.959
862.92	-149.020
863.09	275.410
863.25	-3285.714
863.42	369.318
863.59	308.491
863.76	228.800
863.93	133.990
864.10	179.861
864.26	235.484
864.43	119.343
864.60	201.923
864.77	223.596
864.94	1096.429
865.10	196.183
865.27	184.884
865.44	147.853
865.61	94.857
865.78	143.195
865.94	105.859
866.11	144.484
866.28	243.200
866.45	148.125
866.62	161.905
866.78	129.592
866.95	242.105
867.12	149.138
867.29	123.693
867.46	146.980
867.62	130.946
867.79	147.934
867.96	121.789
868.13	111.205
868.29	123.077
868.46	133.983
868.63	122.263
868.80	116.469
868.97	131.081
869.13	141.633
869.30	161.858
869.47	251.598
869.64	357.669
869.80	441.985
869.97	457.143
870.14	425.342
870.31	429.221
870.47	-4285.714
870.64	52900.000
870.81	-9550.000
870.98	1641.026
871.14	-6610.000
871.31	352.821
871.48	283.186
871.65	235.764
871.81	193.691
871.98	226.027
872.15	226.721
872.31	194.815
872.48	213.333
872.65	173.145
872.82	253.191
872.98	109.343
873.15	117.717
873.32	81.974
873.48	61.411
873.65	107.623
873.82	110.728
873.99	108.969
874.15	77.455
874.32	48.734
874.49	55.785
874.65	55.118
874.82	74.615
874.99	92.308
875.16	154.128
875.32	208.451
875.49	159.119
875.66	148.864
875.82	128.279
875.99	224.627
876.16	-20300.000
876.32	3320.000
876.49	-107.407
876.66	2616.667
876.82	-191.304
876.99	-247.727
877.16	-311.429
877.32	876.190
877.49	-376.316
877.66	233.333
877.82	113.830
877.99	160.956
878.16	173.239
878.32	141.176
878.49	132.589
878.66	120.711
878.82	106.334
878.99	95.993
879.16	112.395
879.32	71.217
879.49	85.400
879.66	84.659
879.82	56.268
879.99	44.651
880.16	-206.667
880.32	-25.641
880.49	55.844
880.65	107.692
880.82	-50.820
880.99	-194.937
881.15	-2625.000
881.32	-129.630
881.49	24.891
881.65	51.429
881.82	88.050
881.98	80.098
882.15	77.317
882.32	58.644
882.48	69.645
882.65	86.115
882.82	86.888
882.98	94.186
883.15	113.893
883.31	104.861
883.48	80.616
883.65	66.057
883.81	69.843
883.98	69.543
884.14	68.186
884.31	48.968
884.48	50.989
884.64	52.231
884.81	48.029
884.97	36.712
885.14	30.256
885.30	32.412
885.47	45.307
885.64	41.993
885.80	33.218
885.97	32.122
886.13	45.455
886.30	43.452
886.47	42.410
886.63	44.456
886.80	42.843
886.96	42.559
887.13	44.634
887.29	36.686
887.46	45.433
887.62	49.398
887.79	57.586
887.96	68.159
888.12	5.000
888.29	557.895
888.45	21.154
888.62	56.436
888.78	-309.091
>>>>>End Processed Spectral Data<<<<<
