SpectraSuite Data File
++++++++++++++++++++++++++++++++++++
Date: Mon Jan 12 10:55:26 EST 2009
User: Lex
Dark Spectrum Present: Yes
Reference Spectrum Present: Yes
Number of Sampled Component Spectra: 1
Spectrometers: USB4E03001
Integration Time (usec): 100000 (USB4E03001)
Spectra Averaged: 5 (USB4E03001)
Boxcar Smoothing: 5 (USB4E03001)
Correct for Electrical Dark: No (USB4E03001)
Strobe/Lamp Enabled: Yes (USB4E03001)
Correct for Detector Non-linearity: No (USB4E03001)
Correct for Stray Light: No (USB4E03001)
Number of Pixels in Processed Spectrum: 3648
>>>>>Begin Processed Spectral Data<<<<<
177.57	-140.000
177.79	-140.000
178.01	-140.000
178.23	220.000
178.45	79.661
178.66	198.684
178.88	154.229
179.10	115.985
179.32	72.277
179.54	73.454
179.76	66.110
179.98	84.573
180.20	101.818
180.42	117.460
180.64	289.130
180.86	521.154
181.08	164.957
181.30	228.272
181.52	296.350
181.74	844.000
181.96	-2242.105
182.18	-660.000
182.40	-617.808
182.62	-2622.222
182.84	-765.000
183.06	3066.667
183.28	608.955
183.50	-333.333
183.72	-365.714
183.94	-444.444
184.16	565.789
184.38	-539.706
184.60	-656.863
184.82	979.070
185.04	8550.000
185.26	913.462
185.48	-2731.250
185.69	-661.333
185.91	-838.710
186.13	750.794
186.35	726.230
186.57	-535.849
186.79	221.970
187.01	441.429
187.23	-526.087
187.45	-244.340
187.67	-152.174
187.89	-220.430
188.11	444.156
188.33	1113.793
188.55	-671.930
188.77	-3544.444
188.99	519.355
189.21	441.600
189.42	308.780
189.64	492.742
189.86	606.316
190.08	375.758
190.30	545.882
190.52	7775.000
190.74	232.979
190.96	433.333
191.18	-776.190
191.40	-102.186
191.62	-33.893
191.84	-10.592
192.06	23.355
192.27	4.762
192.49	-17.105
192.71	-221.053
192.93	-77.519
193.15	28.053
193.37	24.865
193.59	26.957
193.81	32.222
194.03	-73.973
194.25	-15.652
194.47	1850.000
194.68	-125.373
194.90	-270.000
195.12	-125.564
195.34	589.474
195.56	336.111
195.78	437.931
196.00	256.000
196.22	128.205
196.44	131.293
196.66	106.250
196.87	144.681
197.09	130.952
197.31	93.043
197.53	-358.333
197.75	1716.667
197.97	1261.538
198.19	-691.304
198.41	-630.882
198.63	-253.672
198.84	-1057.143
199.06	-375.862
199.28	-201.058
199.50	-200.556
199.72	-224.540
199.94	-877.358
200.16	-158.209
200.38	-63.514
200.59	-122.768
200.81	-73.310
201.03	-150.000
201.25	-126.641
201.47	-551.389
201.69	709.859
201.91	304.598
202.13	224.691
202.34	236.126
202.56	101.003
202.78	131.054
203.00	133.725
203.22	102.640
203.44	63.251
203.66	51.590
203.87	17.365
204.09	-23.276
204.31	-1040.000
204.53	586.207
204.75	-433.333
204.97	-41.975
205.19	-300.000
205.40	-820.000
205.62	-212.500
205.84	50.000
206.06	-166.667
206.28	117.986
206.50	283.077
206.71	108.649
206.93	127.556
207.15	181.977
207.37	229.310
207.59	210.897
207.81	190.638
208.02	176.042
208.24	146.736
208.46	131.988
208.68	132.628
208.90	129.500
209.12	177.365
209.33	269.869
209.55	167.378
209.77	169.638
209.99	127.619
210.21	161.994
210.43	189.057
210.64	202.151
210.86	171.375
211.08	515.000
211.30	783.673
211.52	513.889
211.74	388.776
211.95	858.491
212.17	394.186
212.39	361.111
212.61	170.229
212.83	156.186
213.04	496.610
213.26	342.857
213.48	232.000
213.70	163.291
213.92	110.053
214.13	83.412
214.35	93.162
214.57	179.096
214.79	-2418.182
215.01	-271.765
215.22	-975.000
215.44	342.520
215.66	544.048
215.88	371.724
216.10	1186.842
216.31	-746.032
216.53	-345.312
216.75	-226.036
216.97	-186.547
217.19	-420.909
217.40	-1807.143
217.62	-571.605
217.84	-225.309
218.06	-286.842
218.27	-170.526
218.49	-333.645
218.71	-2517.647
218.93	-1480.000
219.15	-4350.000
219.36	-523.333
219.58	-479.592
219.80	2314.286
220.02	120.968
220.23	88.477
220.45	37.975
220.67	25.616
220.89	-8.696
221.11	-131.250
221.32	-2780.000
221.54	36.207
221.76	541.667
221.98	132.394
222.19	-311.111
222.41	-375.000
222.63	-173.596
222.85	-452.564
223.06	-1202.778
223.28	-1496.875
223.50	-467.010
223.72	-1118.182
223.93	606.944
224.15	556.716
224.37	-1088.571
224.59	-3046.154
224.80	-897.436
225.02	-436.207
225.24	-119.231
225.46	-36.869
225.67	-79.769
225.89	4066.667
226.11	446.575
226.33	547.692
226.54	830.769
226.76	403.738
226.98	1050.000
227.20	990.909
227.41	214.935
227.63	242.537
227.85	167.658
228.06	116.707
228.28	105.514
228.50	70.040
228.72	48.829
228.93	58.059
229.15	37.385
229.37	39.232
229.59	38.345
229.80	44.337
230.02	52.344
230.24	62.696
230.45	73.011
230.67	67.341
230.89	78.512
231.11	93.923
231.32	85.147
231.54	117.494
231.76	102.714
231.97	139.595
232.19	94.334
232.41	79.301
232.63	37.826
232.84	28.788
233.06	55.523
233.28	59.756
233.49	65.138
233.71	45.566
233.93	45.049
234.14	43.566
234.36	49.563
234.58	70.864
234.79	83.788
235.01	82.844
235.23	73.976
235.45	62.850
235.66	50.410
235.88	51.867
236.10	49.842
236.31	52.062
236.53	94.558
236.75	69.608
236.96	-161.905
237.18	-369.444
237.40	-145.283
237.61	-68.000
237.83	-775.000
238.05	-182.051
238.26	55.882
238.48	500.000
238.70	124.576
238.91	131.532
239.13	171.806
239.35	143.986
239.56	303.968
239.78	2472.727
240.00	248.352
240.21	444.444
240.43	179.715
240.65	169.895
240.86	133.706
241.08	115.755
241.30	80.717
241.51	73.988
241.73	81.232
241.95	76.583
242.16	76.951
242.38	69.266
242.60	59.309
242.81	52.789
243.03	49.025
243.25	37.978
243.46	45.853
243.68	54.432
243.90	62.612
244.11	58.763
244.33	50.218
244.55	43.254
244.76	43.951
244.98	40.349
245.19	40.532
245.41	27.907
245.63	29.905
245.84	25.650
246.06	17.785
246.28	10.683
246.49	10.383
246.71	8.516
246.92	9.872
247.14	8.564
247.36	9.976
247.57	9.244
247.79	19.851
248.01	24.145
248.22	24.896
248.44	27.202
248.65	32.581
248.87	36.269
249.09	37.230
249.30	44.067
249.52	47.702
249.74	51.132
249.95	51.983
250.17	49.949
250.38	47.856
250.60	46.406
250.82	37.989
251.03	32.659
251.25	37.156
251.46	38.924
251.68	34.111
251.90	31.157
252.11	34.683
252.33	37.774
252.54	26.365
252.76	30.878
252.98	40.000
253.19	48.449
253.41	56.906
253.62	51.073
253.84	57.284
254.06	57.559
254.27	66.275
254.49	54.897
254.70	64.487
254.92	73.195
255.14	51.778
255.35	44.186
255.57	54.839
255.78	43.912
256.00	48.122
256.21	47.493
256.43	48.413
256.65	52.479
256.86	55.230
257.08	47.205
257.29	39.601
257.51	46.843
257.72	44.735
257.94	30.008
258.16	31.991
258.37	31.677
258.59	32.342
258.80	29.093
259.02	24.060
259.23	23.290
259.45	25.167
259.66	25.472
259.88	25.746
260.10	25.568
260.31	25.672
260.53	23.575
260.74	20.968
260.96	19.609
261.17	18.167
261.39	18.399
261.60	19.072
261.82	15.798
262.04	20.895
262.25	23.385
262.47	25.990
262.68	29.099
262.90	36.610
263.11	39.389
263.33	37.704
263.54	44.681
263.76	48.501
263.97	38.500
264.19	39.887
264.40	35.878
264.62	29.860
264.84	13.781
265.05	18.779
265.27	10.250
265.48	18.551
265.70	15.631
265.91	14.650
266.13	5.216
266.34	12.309
266.56	19.065
266.77	9.800
266.99	2.388
267.20	12.463
267.42	0.000
267.63	-1.676
267.85	-11.205
268.06	-13.153
268.28	-19.762
268.49	-12.850
268.71	-14.002
268.92	-21.264
269.14	-4.483
269.35	0.296
269.57	5.512
269.78	11.263
270.00	6.954
270.21	6.692
270.43	7.781
270.64	10.576
270.86	7.605
271.07	12.682
271.29	13.293
271.50	7.712
271.72	9.112
271.93	0.376
272.15	0.962
272.36	7.498
272.58	6.012
272.79	7.479
273.01	5.953
273.22	12.786
273.44	7.120
273.65	11.373
273.87	7.626
274.08	12.604
274.30	22.616
274.51	20.465
274.73	28.261
274.94	34.964
275.16	35.685
275.37	37.954
275.59	26.309
275.80	30.769
276.01	19.246
276.23	22.709
276.44	24.286
276.66	20.981
276.87	21.039
277.09	18.157
277.30	24.819
277.52	26.947
277.73	29.405
277.95	35.502
278.16	33.184
278.38	40.219
278.59	39.628
278.80	33.801
279.02	34.670
279.23	40.433
279.45	37.813
279.66	31.921
279.88	29.890
280.09	31.236
280.31	31.322
280.52	23.748
280.73	26.636
280.95	24.897
281.16	25.632
281.38	30.865
281.59	24.460
281.81	27.408
282.02	26.335
282.24	27.952
282.45	19.314
282.66	16.321
282.88	22.033
283.09	19.544
283.31	23.009
283.52	23.289
283.74	19.684
283.95	21.756
284.16	22.160
284.38	26.426
284.59	21.422
284.81	27.258
285.02	29.644
285.23	31.188
285.45	31.482
285.66	29.260
285.88	30.087
286.09	31.595
286.31	30.917
286.52	27.955
286.73	23.857
286.95	24.129
287.16	22.993
287.38	24.801
287.59	23.361
287.80	25.529
288.02	26.459
288.23	22.603
288.45	22.302
288.66	26.189
288.87	27.487
289.09	28.578
289.30	28.374
289.52	31.772
289.73	27.404
289.94	27.377
290.16	28.755
290.37	28.891
290.58	26.174
290.80	21.882
291.01	16.184
291.23	14.846
291.44	15.472
291.65	14.751
291.87	12.278
292.08	14.311
292.29	14.254
292.51	11.296
292.72	9.717
292.94	16.537
293.15	18.605
293.36	19.519
293.58	15.433
293.79	12.300
294.00	13.501
294.22	11.067
294.43	12.175
294.65	6.598
294.86	2.897
295.07	4.996
295.29	3.903
295.50	2.194
295.71	1.290
295.93	5.706
296.14	10.829
296.35	11.586
296.57	8.437
296.78	3.758
296.99	8.482
297.21	10.467
297.42	10.825
297.63	9.684
297.85	9.793
298.06	12.560
298.28	11.073
298.49	10.547
298.70	6.732
298.92	9.046
299.13	10.505
299.34	8.673
299.56	8.461
299.77	7.989
299.98	10.690
300.20	12.768
300.41	14.115
300.62	18.117
300.84	16.775
301.05	23.177
301.26	25.964
301.47	29.424
301.69	30.085
301.90	29.850
302.11	24.726
302.33	24.348
302.54	24.868
302.75	21.400
302.97	21.164
303.18	19.750
303.39	18.644
303.61	16.920
303.82	13.639
304.03	11.507
304.25	16.235
304.46	23.243
304.67	22.904
304.88	24.766
305.10	22.819
305.31	21.899
305.52	19.524
305.74	21.791
305.95	22.935
306.16	29.604
306.38	33.659
306.59	30.157
306.80	25.327
307.01	20.282
307.23	18.093
307.44	14.762
307.65	15.438
307.87	21.465
308.08	19.384
308.29	18.899
308.50	14.553
308.72	6.497
308.93	4.029
309.14	9.029
309.36	11.578
309.57	14.509
309.78	16.016
309.99	11.678
310.21	4.212
310.42	4.435
310.63	4.713
310.84	7.517
311.06	9.405
311.27	15.331
311.48	13.757
311.70	15.287
311.91	12.947
312.12	17.271
312.33	21.676
312.55	23.014
312.76	20.134
312.97	21.760
313.18	22.676
313.40	30.180
313.61	28.151
313.82	25.861
314.03	24.683
314.25	25.895
314.46	25.639
314.67	24.658
314.88	26.783
315.10	25.798
315.31	25.104
315.52	21.274
315.73	14.522
315.95	12.026
316.16	16.346
316.37	18.137
316.58	11.637
316.80	13.165
317.01	8.314
317.22	6.381
317.43	10.472
317.64	6.361
317.86	8.031
318.07	4.331
318.28	11.565
318.49	13.504
318.71	21.484
318.92	27.694
319.13	22.362
319.34	27.964
319.55	26.716
319.77	24.820
319.98	22.643
320.19	17.774
320.40	20.566
320.62	16.522
320.83	15.251
321.04	13.111
321.25	11.393
321.46	13.512
321.68	15.924
321.89	18.392
322.10	17.973
322.31	18.228
322.52	24.361
322.74	29.391
322.95	28.609
323.16	24.469
323.37	22.336
323.58	23.888
323.80	22.431
324.01	18.453
324.22	20.639
324.43	22.471
324.64	24.784
324.86	24.719
325.07	20.732
325.28	16.770
325.49	19.563
325.70	20.293
325.91	18.540
326.13	21.219
326.34	20.618
326.55	14.742
326.76	12.815
326.97	14.700
327.18	11.423
327.40	15.330
327.61	22.114
327.82	25.018
328.03	21.811
328.24	24.078
328.45	25.990
328.67	24.326
328.88	28.791
329.09	30.166
329.30	28.095
329.51	27.822
329.72	27.387
329.94	28.119
330.15	21.911
330.36	23.800
330.57	26.914
330.78	24.019
330.99	24.103
331.21	21.473
331.42	23.851
331.63	26.472
331.84	26.046
332.05	25.655
332.26	25.914
332.47	26.736
332.69	26.151
332.90	24.733
333.11	26.117
333.32	30.602
333.53	34.330
333.74	30.202
333.95	28.979
334.16	32.570
334.38	29.314
334.59	28.905
334.80	29.082
335.01	30.263
335.22	30.245
335.43	33.216
335.64	30.335
335.85	29.427
336.07	33.309
336.28	30.837
336.49	29.818
336.70	31.332
336.91	27.093
337.12	30.777
337.33	30.283
337.54	28.523
337.76	23.521
337.97	26.117
338.18	24.791
338.39	23.717
338.60	28.004
338.81	26.279
339.02	26.617
339.23	27.417
339.44	25.018
339.65	27.597
339.87	27.015
340.08	26.221
340.29	23.740
340.50	28.393
340.71	27.751
340.92	27.650
341.13	26.179
341.34	24.350
341.55	26.551
341.76	25.554
341.97	24.687
342.19	27.647
342.40	27.562
342.61	28.673
342.82	26.914
343.03	28.383
343.24	26.160
343.45	27.960
343.66	30.334
343.87	28.971
344.08	27.257
344.29	23.644
344.50	19.659
344.71	18.592
344.93	21.703
345.14	21.424
345.35	19.987
345.56	20.233
345.77	20.704
345.98	20.356
346.19	20.274
346.40	18.848
346.61	20.593
346.82	20.495
347.03	24.129
347.24	21.903
347.45	18.674
347.66	17.216
347.87	18.653
348.08	15.799
348.29	16.118
348.50	15.487
348.71	16.872
348.93	16.260
349.14	18.939
349.35	21.220
349.56	22.611
349.77	23.174
349.98	23.428
350.19	21.046
350.40	19.709
350.61	20.743
350.82	24.692
351.03	28.347
351.24	30.600
351.45	31.946
351.66	25.332
351.87	21.267
352.08	22.604
352.29	24.882
352.50	25.781
352.71	26.640
352.92	25.462
353.13	21.805
353.34	23.451
353.55	23.422
353.76	21.058
353.97	23.802
354.18	26.715
354.39	24.151
354.60	23.225
354.81	23.104
355.02	26.145
355.23	25.715
355.44	25.331
355.65	23.098
355.86	21.816
356.07	25.788
356.28	27.296
356.49	26.662
356.70	28.892
356.91	26.535
357.12	27.478
357.33	25.143
357.54	23.527
357.75	23.445
357.96	21.367
358.17	19.874
358.38	16.591
358.59	14.399
358.80	14.086
359.01	12.444
359.22	12.890
359.43	10.901
359.64	10.069
359.85	10.040
360.06	9.950
360.27	10.590
360.48	13.194
360.69	12.697
360.90	12.643
361.11	9.846
361.32	9.246
361.53	9.604
361.74	11.808
361.95	12.532
362.16	14.030
362.37	12.026
362.58	11.777
362.79	13.406
362.99	13.903
363.20	15.235
363.41	18.245
363.62	19.877
363.83	19.358
364.04	19.745
364.25	18.988
364.46	20.456
364.67	22.535
364.88	23.713
365.09	17.419
365.30	18.429
365.51	18.119
365.72	19.310
365.93	17.027
366.14	16.394
366.35	15.397
366.56	16.476
366.76	14.445
366.97	15.499
367.18	16.353
367.39	20.620
367.60	20.806
367.81	18.662
368.02	14.716
368.23	15.138
368.44	16.727
368.65	16.120
368.86	15.008
369.07	16.009
369.28	15.944
369.48	13.141
369.69	10.665
369.90	9.257
370.11	11.226
370.32	12.607
370.53	15.169
370.74	14.349
370.95	12.699
371.16	15.232
371.37	13.976
371.58	13.783
371.78	14.819
371.99	16.546
372.20	16.721
372.41	13.067
372.62	14.225
372.83	14.521
373.04	13.700
373.25	16.609
373.46	14.526
373.67	14.681
373.87	15.208
374.08	14.762
374.29	15.818
374.50	16.291
374.71	18.877
374.92	19.687
375.13	19.155
375.34	21.002
375.55	20.401
375.75	17.348
375.96	19.352
376.17	18.812
376.38	16.736
376.59	15.491
376.80	15.028
377.01	16.127
377.21	14.077
377.42	12.906
377.63	13.618
377.84	14.422
378.05	18.356
378.26	16.492
378.47	16.691
378.68	18.828
378.88	19.068
379.09	17.028
379.30	16.560
379.51	16.108
379.72	16.809
379.93	16.008
380.14	13.374
380.34	12.419
380.55	12.513
380.76	13.517
380.97	12.192
381.18	13.406
381.39	13.947
381.59	12.815
381.80	13.882
382.01	13.915
382.22	13.132
382.43	13.475
382.64	13.975
382.84	15.631
383.05	14.965
383.26	16.845
383.47	15.453
383.68	14.163
383.89	16.553
384.09	15.073
384.30	14.164
384.51	11.475
384.72	12.436
384.93	11.959
385.14	10.745
385.34	10.880
385.55	11.610
385.76	11.028
385.97	11.678
386.18	12.951
386.38	14.213
386.59	13.030
386.80	14.971
387.01	15.564
387.22	15.934
387.42	15.703
387.63	17.046
387.84	15.640
388.05	16.044
388.26	16.589
388.46	15.519
388.67	15.833
388.88	17.496
389.09	15.971
389.30	15.793
389.50	14.497
389.71	14.958
389.92	12.976
390.13	13.269
390.34	12.050
390.54	11.766
390.75	10.590
390.96	10.859
391.17	9.554
391.37	11.306
391.58	11.566
391.79	13.537
392.00	12.087
392.21	11.426
392.41	11.243
392.62	12.535
392.83	13.940
393.04	14.069
393.24	14.523
393.45	17.533
393.66	17.562
393.87	16.449
394.07	14.171
394.28	15.159
394.49	16.502
394.70	15.517
394.91	15.882
395.11	17.338
395.32	17.071
395.53	15.927
395.74	13.393
395.94	13.427
396.15	13.207
396.36	13.602
396.57	15.296
396.77	15.143
396.98	16.501
397.19	14.869
397.40	13.933
397.60	13.891
397.81	14.379
398.02	17.096
398.22	17.505
398.43	16.329
398.64	17.274
398.85	14.369
399.05	12.326
399.26	10.688
399.47	12.798
399.68	10.414
399.88	9.376
400.09	9.515
400.30	6.823
400.50	4.941
400.71	7.447
400.92	6.328
401.13	8.989
401.33	12.080
401.54	14.271
401.75	13.800
401.95	16.163
402.16	16.281
402.37	15.036
402.58	15.703
402.78	18.264
402.99	18.238
403.20	18.577
403.40	16.916
403.61	15.819
403.82	15.743
404.03	14.573
404.23	14.001
404.44	14.981
404.65	16.699
404.85	16.833
405.06	15.377
405.27	14.498
405.47	13.864
405.68	14.554
405.89	13.923
406.09	13.869
406.30	14.763
406.51	15.791
406.71	15.365
406.92	15.123
407.13	16.441
407.34	16.348
407.54	18.363
407.75	19.262
407.96	18.550
408.16	20.228
408.37	19.048
408.58	17.886
408.78	16.015
408.99	16.539
409.20	17.024
409.40	13.049
409.61	14.269
409.82	11.267
410.02	12.074
410.23	10.681
410.44	11.260
410.64	11.141
410.85	12.877
411.05	13.307
411.26	12.923
411.47	13.122
411.67	15.289
411.88	15.561
412.09	17.153
412.29	17.683
412.50	20.226
412.71	19.408
412.91	19.093
413.12	19.103
413.33	17.220
413.53	18.525
413.74	17.618
413.94	18.335
414.15	17.465
414.36	17.140
414.56	15.289
414.77	15.760
414.98	13.911
415.18	13.664
415.39	12.194
415.59	13.743
415.80	14.065
416.01	13.908
416.21	13.636
416.42	12.748
416.63	13.590
416.83	13.942
417.04	11.629
417.24	12.064
417.45	13.225
417.66	15.438
417.86	15.259
418.07	13.734
418.27	13.539
418.48	12.483
418.69	14.688
418.89	13.316
419.10	13.238
419.30	14.377
419.51	14.674
419.72	14.387
419.92	12.624
420.13	12.570
420.33	13.279
420.54	12.588
420.75	13.189
420.95	11.917
421.16	12.556
421.36	12.886
421.57	13.022
421.78	13.322
421.98	12.277
422.19	13.102
422.39	13.886
422.60	13.288
422.80	13.609
423.01	13.077
423.22	12.976
423.42	13.432
423.63	13.666
423.83	12.574
424.04	12.388
424.24	13.151
424.45	13.018
424.66	12.085
424.86	12.652
425.07	12.349
425.27	12.683
425.48	12.813
425.68	11.890
425.89	11.207
426.10	11.720
426.30	11.992
426.51	12.576
426.71	12.041
426.92	11.949
427.12	11.385
427.33	13.548
427.53	14.439
427.74	14.338
427.94	14.801
428.15	15.111
428.36	14.704
428.56	14.245
428.77	14.357
428.97	15.369
429.18	16.187
429.38	17.140
429.59	15.872
429.79	15.267
430.00	15.646
430.20	16.417
430.41	16.892
430.61	16.146
430.82	16.375
431.02	16.657
431.23	15.417
431.43	14.985
431.64	13.950
431.84	13.383
432.05	13.492
432.26	13.921
432.46	11.277
432.67	10.949
432.87	12.351
433.08	11.366
433.28	10.475
433.49	10.569
433.69	10.825
433.90	11.439
434.10	11.229
434.31	11.064
434.51	11.199
434.72	12.888
434.92	13.303
435.13	12.796
435.33	12.948
435.54	13.234
435.74	13.173
435.95	13.571
436.15	13.845
436.36	14.783
436.56	15.512
436.76	16.087
436.97	17.457
437.17	16.943
437.38	18.231
437.58	18.560
437.79	18.646
437.99	18.842
438.20	18.588
438.40	18.761
438.61	18.420
438.81	18.512
439.02	17.047
439.22	15.954
439.43	15.673
439.63	14.656
439.84	14.565
440.04	14.438
440.24	14.067
440.45	13.940
440.65	13.417
440.86	13.710
441.06	13.285
441.27	14.263
441.47	14.318
441.68	15.263
441.88	15.935
442.09	16.298
442.29	16.288
442.49	16.665
442.70	17.213
442.90	16.644
443.11	16.411
443.31	15.676
443.52	14.244
443.72	13.767
443.93	12.647
444.13	12.887
444.33	12.468
444.54	12.032
444.74	12.637
444.95	12.495
445.15	13.190
445.36	12.813
445.56	13.109
445.76	13.994
445.97	14.043
446.17	14.445
446.38	14.393
446.58	14.656
446.79	14.959
446.99	14.357
447.19	14.182
447.40	13.438
447.60	13.517
447.81	14.141
448.01	13.344
448.21	13.346
448.42	12.390
448.62	11.751
448.83	12.232
449.03	12.991
449.23	13.628
449.44	12.973
449.64	13.866
449.85	14.465
450.05	14.500
450.25	15.261
450.46	14.753
450.66	14.936
450.87	15.290
451.07	14.327
451.27	13.853
451.48	13.484
451.68	14.858
451.88	14.720
452.09	15.022
452.29	14.916
452.50	14.601
452.70	15.206
452.90	16.237
453.11	16.073
453.31	16.443
453.51	16.194
453.72	16.494
453.92	14.563
454.13	14.366
454.33	14.353
454.53	14.792
454.74	15.250
454.94	15.075
455.14	15.003
455.35	14.470
455.55	14.713
455.75	14.635
455.96	14.184
456.16	15.279
456.37	16.036
456.57	14.925
456.77	14.006
456.98	13.058
457.18	13.244
457.38	13.252
457.59	13.161
457.79	12.111
457.99	11.648
458.20	11.031
458.40	11.032
458.60	10.836
458.81	10.831
459.01	10.572
459.21	11.175
459.42	10.990
459.62	10.948
459.82	11.398
460.03	11.937
460.23	11.981
460.43	12.840
460.64	12.548
460.84	12.486
461.04	13.405
461.25	13.597
461.45	14.418
461.65	14.143
461.86	14.567
462.06	13.705
462.26	12.874
462.46	13.290
462.67	13.166
462.87	13.849
463.07	13.778
463.28	12.849
463.48	12.385
463.68	11.278
463.89	13.278
464.09	12.582
464.29	13.040
464.49	13.801
464.70	13.824
464.90	14.212
465.10	14.525
465.31	14.826
465.51	14.749
465.71	16.227
465.92	15.637
466.12	14.301
466.32	15.091
466.52	16.594
466.73	17.130
466.93	17.068
467.13	16.392
467.33	15.883
467.54	15.987
467.74	15.960
467.94	15.023
468.15	15.472
468.35	15.641
468.55	15.275
468.75	14.193
468.96	14.441
469.16	14.016
469.36	13.479
469.56	13.585
469.77	13.552
469.97	14.834
470.17	14.423
470.37	14.075
470.58	13.352
470.78	12.804
470.98	12.993
471.18	12.801
471.39	12.447
471.59	13.504
471.79	13.604
471.99	13.292
472.20	12.720
472.40	12.920
472.60	13.795
472.80	14.649
473.01	15.482
473.21	15.921
473.41	15.376
473.61	15.290
473.82	15.202
474.02	14.836
474.22	15.170
474.42	14.404
474.63	14.529
474.83	14.609
475.03	14.539
475.23	13.769
475.43	12.398
475.64	12.142
475.84	11.954
476.04	11.531
476.24	11.759
476.44	11.583
476.65	11.556
476.85	11.719
477.05	11.635
477.25	10.776
477.46	11.209
477.66	12.090
477.86	12.234
478.06	13.628
478.26	13.518
478.47	13.870
478.67	14.130
478.87	13.738
479.07	13.964
479.27	14.247
479.48	14.098
479.68	13.482
479.88	13.671
480.08	13.517
480.28	13.576
480.48	13.658
480.69	13.464
480.89	12.815
481.09	13.499
481.29	13.012
481.49	12.622
481.70	12.855
481.90	12.599
482.10	11.966
482.30	11.937
482.50	11.226
482.70	11.228
482.91	11.319
483.11	11.342
483.31	11.346
483.51	11.195
483.71	11.179
483.91	11.341
484.12	11.415
484.32	11.537
484.52	11.616
484.72	11.873
484.92	11.857
485.12	11.792
485.32	11.831
485.53	11.596
485.73	11.720
485.93	11.707
486.13	11.690
486.33	11.520
486.53	11.524
486.73	11.350
486.94	11.305
487.14	11.456
487.34	11.883
487.54	11.839
487.74	11.778
487.94	12.159
488.14	12.113
488.35	12.169
488.55	12.419
488.75	12.589
488.95	12.931
489.15	12.552
489.35	12.541
489.55	12.089
489.75	11.904
489.96	11.846
490.16	11.708
490.36	11.630
490.56	11.636
490.76	11.820
490.96	11.459
491.16	11.408
491.36	12.021
491.56	12.289
491.77	12.076
491.97	12.282
492.17	12.742
492.37	12.573
492.57	12.704
492.77	12.677
492.97	12.568
493.17	13.003
493.37	12.827
493.57	12.751
493.78	12.431
493.98	12.943
494.18	13.032
494.38	12.819
494.58	12.519
494.78	11.807
494.98	12.205
495.18	12.596
495.38	12.363
495.58	12.476
495.78	12.335
495.98	12.465
496.19	12.626
496.39	12.803
496.59	12.646
496.79	13.281
496.99	14.270
497.19	13.967
497.39	14.155
497.59	13.863
497.79	13.352
497.99	13.529
498.19	12.782
498.39	12.074
498.59	11.421
498.79	11.863
498.99	11.313
499.19	11.491
499.40	11.230
499.60	10.741
499.80	11.544
500.00	12.281
500.20	12.984
500.40	13.354
500.60	14.079
500.80	15.034
501.00	15.334
501.20	15.293
501.40	14.716
501.60	15.239
501.80	15.501
502.00	15.305
502.20	15.043
502.40	14.142
502.60	14.554
502.80	14.703
503.00	14.595
503.20	14.860
503.40	14.813
503.60	15.918
503.80	15.410
504.00	15.684
504.20	15.079
504.40	15.472
504.60	15.459
504.80	15.389
505.00	15.246
505.20	14.690
505.40	14.199
505.60	14.470
505.80	14.519
506.00	14.917
506.20	14.318
506.40	14.966
506.60	15.232
506.80	15.313
507.00	15.855
507.20	15.854
507.40	16.162
507.60	15.175
507.80	15.346
508.00	14.611
508.20	14.631
508.40	13.937
508.60	13.212
508.80	12.008
509.00	12.006
509.20	11.454
509.40	10.573
509.60	11.194
509.80	11.416
510.00	11.179
510.20	11.467
510.40	10.500
510.60	10.854
510.80	11.854
511.00	12.830
511.20	12.701
511.40	12.879
511.60	13.960
511.80	14.250
512.00	14.278
512.20	14.259
512.40	14.185
512.60	15.143
512.80	15.011
513.00	14.288
513.20	14.072
513.40	14.272
513.60	14.322
513.80	14.541
513.99	13.734
514.19	14.800
514.39	15.305
514.59	14.268
514.79	14.619
514.99	14.625
515.19	14.780
515.39	15.393
515.59	15.459
515.79	16.105
515.99	15.422
516.19	15.543
516.39	14.908
516.59	14.550
516.79	14.892
516.98	14.655
517.18	15.674
517.38	15.555
517.58	15.139
517.78	15.235
517.98	14.976
518.18	14.346
518.38	14.229
518.58	14.129
518.78	13.598
518.98	13.586
519.18	13.844
519.37	13.336
519.57	13.628
519.77	13.636
519.97	13.129
520.17	12.634
520.37	13.860
520.57	14.405
520.77	14.681
520.97	15.845
521.17	16.463
521.36	16.171
521.56	16.233
521.76	16.162
521.96	16.279
522.16	16.846
522.36	17.944
522.56	17.365
522.76	17.392
522.96	17.427
523.15	17.460
523.35	17.279
523.55	17.477
523.75	18.076
523.95	18.100
524.15	17.518
524.35	17.132
524.55	17.282
524.74	17.438
524.94	16.955
525.14	17.080
525.34	17.440
525.54	17.745
525.74	17.123
525.94	16.947
526.13	16.994
526.33	17.943
526.53	18.151
526.73	17.277
526.93	17.432
527.13	17.532
527.33	16.847
527.52	16.169
527.72	15.499
527.92	15.797
528.12	15.519
528.32	15.318
528.52	14.789
528.71	14.903
528.91	15.147
529.11	14.832
529.31	14.869
529.51	15.193
529.71	15.478
529.90	15.718
530.10	15.677
530.30	15.716
530.50	16.040
530.70	16.474
530.90	16.430
531.09	16.606
531.29	16.306
531.49	16.665
531.69	16.956
531.89	16.721
532.09	16.478
532.28	16.823
532.48	17.154
532.68	16.788
532.88	16.626
533.08	16.537
533.27	16.363
533.47	16.974
533.67	16.433
533.87	16.231
534.07	16.273
534.26	16.766
534.46	16.579
534.66	16.571
534.86	17.027
535.06	17.109
535.25	17.487
535.45	16.846
535.65	16.848
535.85	17.103
536.04	16.868
536.24	17.294
536.44	17.473
536.64	17.054
536.84	17.448
537.03	17.279
537.23	16.599
537.43	16.522
537.63	17.089
537.82	16.204
538.02	16.236
538.22	16.734
538.42	16.193
538.62	15.795
538.81	16.175
539.01	15.188
539.21	15.280
539.41	15.920
539.60	16.298
539.80	16.681
540.00	17.665
540.20	17.544
540.39	17.716
540.59	17.108
540.79	16.950
540.99	16.734
541.18	17.004
541.38	17.061
541.58	16.736
541.78	16.659
541.97	16.373
542.17	16.623
542.37	16.561
542.57	16.370
542.76	16.600
542.96	16.698
543.16	17.218
543.36	17.102
543.55	16.860
543.75	17.170
543.95	17.100
544.14	17.399
544.34	16.591
544.54	16.888
544.74	17.055
544.93	17.375
545.13	17.428
545.33	17.744
545.52	17.828
545.72	18.049
545.92	18.349
546.12	17.896
546.31	17.427
546.51	17.799
546.71	17.905
546.90	17.630
547.10	17.867
547.30	17.876
547.49	17.180
547.69	17.277
547.89	16.933
548.09	17.066
548.28	17.754
548.48	17.882
548.68	18.122
548.87	17.854
549.07	18.249
549.27	18.196
549.46	18.425
549.66	18.492
549.86	18.440
550.05	19.552
550.25	19.916
550.45	19.307
550.64	20.180
550.84	20.303
551.04	20.655
551.24	19.648
551.43	19.487
551.63	18.881
551.83	18.575
552.02	19.798
552.22	19.132
552.41	19.192
552.61	19.404
552.81	20.238
553.00	19.609
553.20	18.866
553.40	19.301
553.59	19.480
553.79	20.548
553.99	21.731
554.18	20.681
554.38	20.782
554.58	19.607
554.77	20.612
554.97	19.344
555.17	20.854
555.36	21.715
555.56	21.640
555.76	21.979
555.95	21.304
556.15	20.828
556.34	21.703
556.54	21.604
556.74	22.258
556.93	21.514
557.13	22.804
557.33	21.588
557.52	22.735
557.72	23.411
557.91	22.651
558.11	23.298
558.31	22.986
558.50	23.009
558.70	23.386
558.90	23.739
559.09	23.128
559.29	22.347
559.48	23.782
559.68	22.081
559.88	21.905
560.07	22.803
560.27	22.763
560.46	22.765
560.66	22.626
560.86	22.790
561.05	21.010
561.25	21.480
561.44	21.511
561.64	20.564
561.84	21.417
562.03	21.568
562.23	21.439
562.42	21.209
562.62	21.219
562.81	21.528
563.01	21.493
563.21	22.955
563.40	23.226
563.60	23.147
563.79	23.313
563.99	23.740
564.18	22.500
564.38	22.054
564.58	21.810
564.77	21.861
564.97	21.994
565.16	21.478
565.36	21.891
565.55	21.012
565.75	20.922
565.95	21.161
566.14	19.820
566.34	21.142
566.53	21.437
566.73	22.090
566.92	21.971
567.12	20.749
567.31	21.391
567.51	20.913
567.71	21.698
567.90	21.697
568.10	21.437
568.29	22.546
568.49	22.511
568.68	21.891
568.88	21.850
569.07	21.835
569.27	22.847
569.46	22.437
569.66	22.762
569.85	22.031
570.05	22.123
570.24	22.759
570.44	22.332
570.64	21.641
570.83	22.508
571.03	21.951
571.22	22.389
571.42	22.333
571.61	22.070
571.81	21.466
572.00	21.616
572.20	21.543
572.39	21.195
572.59	21.693
572.78	22.048
572.98	22.047
573.17	21.741
573.37	20.706
573.56	22.010
573.76	21.600
573.95	21.753
574.15	21.860
574.34	21.575
574.54	21.371
574.73	20.662
574.93	20.154
575.12	20.362
575.32	21.106
575.51	21.452
575.71	20.182
575.90	19.881
576.10	19.750
576.29	19.207
576.49	19.072
576.68	18.572
576.87	18.515
577.07	19.224
577.26	18.183
577.46	17.911
577.65	18.268
577.85	18.333
578.04	19.768
578.24	20.012
578.43	20.733
578.63	22.439
578.82	23.370
579.02	23.689
579.21	22.737
579.41	23.493
579.60	23.202
579.79	22.729
579.99	21.901
580.18	21.697
580.38	22.664
580.57	23.133
580.77	21.636
580.96	21.308
581.16	20.983
581.35	21.257
581.54	22.337
581.74	22.388
581.93	24.544
582.13	26.082
582.32	27.441
582.52	26.894
582.71	26.075
582.90	26.726
583.10	27.627
583.29	27.569
583.49	28.729
583.68	26.255
583.88	25.855
584.07	24.738
584.26	23.709
584.46	22.271
584.65	21.705
584.85	21.632
585.04	23.039
585.23	21.557
585.43	23.074
585.62	21.554
585.82	22.828
586.01	22.749
586.20	21.031
586.40	21.761
586.59	21.322
586.79	22.942
586.98	22.869
587.17	21.179
587.37	21.477
587.56	20.407
587.76	21.426
587.95	21.436
588.14	21.552
588.34	23.027
588.53	22.232
588.73	23.015
588.92	21.506
589.11	23.037
589.31	22.373
589.50	22.372
589.69	23.652
589.89	24.586
590.08	24.783
590.28	24.250
590.47	23.337
590.66	24.451
590.86	23.289
591.05	24.038
591.24	23.246
591.44	23.518
591.63	24.138
591.82	22.393
592.02	21.791
592.21	21.750
592.41	22.917
592.60	24.157
592.79	24.805
592.99	25.543
593.18	23.396
593.37	23.633
593.57	25.062
593.76	24.297
593.95	24.840
594.15	24.793
594.34	24.346
594.53	24.475
594.73	24.347
594.92	22.459
595.11	22.134
595.31	23.218
595.50	22.356
595.69	21.284
595.89	21.408
596.08	21.316
596.27	21.582
596.47	22.074
596.66	22.213
596.85	21.751
597.05	21.523
597.24	21.148
597.43	21.697
597.62	22.529
597.82	22.385
598.01	22.541
598.20	22.846
598.40	22.344
598.59	21.033
598.78	21.562
598.98	22.783
599.17	22.393
599.36	22.705
599.55	23.202
599.75	22.962
599.94	24.028
600.13	23.920
600.33	22.777
600.52	23.072
600.71	23.350
600.91	22.106
601.10	21.027
601.29	21.309
601.48	21.978
601.68	20.972
601.87	20.856
602.06	21.038
602.25	20.849
602.45	21.327
602.64	21.128
602.83	22.402
603.03	23.318
603.22	23.294
603.41	23.429
603.60	24.064
603.80	24.888
603.99	24.370
604.18	23.834
604.37	23.707
604.57	23.974
604.76	23.792
604.95	22.828
605.14	21.707
605.34	21.851
605.53	22.864
605.72	23.057
605.91	22.677
606.11	22.325
606.30	22.955
606.49	23.665
606.68	24.068
606.88	24.566
607.07	25.415
607.26	25.454
607.45	24.821
607.65	24.492
607.84	24.520
608.03	24.858
608.22	25.299
608.41	25.011
608.61	23.594
608.80	22.116
608.99	21.008
609.18	20.948
609.38	20.286
609.57	21.060
609.76	19.902
609.95	18.803
610.14	19.302
610.34	19.448
610.53	19.957
610.72	21.060
610.91	22.596
611.10	23.489
611.30	23.381
611.49	25.545
611.68	27.223
611.87	27.985
612.06	29.610
612.26	30.114
612.45	31.104
612.64	29.933
612.83	28.771
613.02	27.663
613.22	26.832
613.41	27.295
613.60	27.572
613.79	25.732
613.98	25.367
614.17	23.589
614.37	22.488
614.56	20.498
614.75	20.314
614.94	21.299
615.13	22.033
615.32	23.528
615.52	23.263
615.71	21.256
615.90	20.982
616.09	20.861
616.28	20.971
616.47	20.990
616.67	21.010
616.86	20.668
617.05	20.456
617.24	19.656
617.43	20.336
617.62	21.242
617.82	21.009
618.01	19.750
618.20	20.782
618.39	22.897
618.58	22.545
618.77	23.107
618.96	23.714
619.16	24.311
619.35	26.451
619.54	26.219
619.73	24.696
619.92	26.803
620.11	28.151
620.30	28.134
620.49	25.530
620.69	24.769
620.88	25.038
621.07	24.410
621.26	24.562
621.45	23.589
621.64	22.101
621.83	23.707
622.02	22.533
622.22	21.554
622.41	21.624
622.60	22.506
622.79	23.904
622.98	25.413
623.17	26.676
623.36	26.474
623.55	25.199
623.74	24.993
623.93	23.233
624.13	23.837
624.32	23.438
624.51	22.386
624.70	21.793
624.89	20.955
625.08	18.006
625.27	17.414
625.46	17.139
625.65	16.534
625.84	17.531
626.03	18.186
626.23	16.407
626.42	17.020
626.61	17.443
626.80	18.007
626.99	18.002
627.18	19.711
627.37	19.706
627.56	19.457
627.75	20.482
627.94	20.089
628.13	20.662
628.32	21.697
628.51	21.660
628.70	21.763
628.89	20.511
629.09	20.928
629.28	20.747
629.47	20.485
629.66	22.622
629.85	21.800
630.04	20.545
630.23	20.609
630.42	20.706
630.61	21.236
630.80	22.342
630.99	23.644
631.18	22.632
631.37	22.856
631.56	22.860
631.75	22.105
631.94	22.583
632.13	24.058
632.32	23.561
632.51	22.395
632.70	20.477
632.89	20.865
633.08	19.694
633.27	21.033
633.46	20.975
633.65	21.790
633.84	21.794
634.03	22.935
634.22	22.863
634.41	21.996
634.60	23.794
634.79	26.309
634.99	25.654
635.18	26.281
635.37	26.312
635.56	25.982
635.75	23.749
635.94	20.689
636.13	19.643
636.32	18.612
636.51	19.684
636.69	17.946
636.88	17.155
637.07	15.436
637.26	14.903
637.45	13.970
637.64	14.596
637.83	16.672
638.02	18.294
638.21	18.617
638.40	19.771
638.59	19.188
638.78	20.009
638.97	20.146
639.16	20.354
639.35	20.784
639.54	21.825
639.73	21.545
639.92	22.314
640.11	21.982
640.30	22.290
640.49	22.090
640.68	23.130
640.87	22.700
641.06	21.756
641.25	24.071
641.44	22.029
641.63	18.570
641.82	17.261
642.01	17.651
642.20	16.486
642.39	16.264
642.58	16.692
642.76	12.776
642.95	14.235
643.14	15.773
643.33	13.308
643.52	14.247
643.71	15.854
643.90	16.334
644.09	15.148
644.28	16.483
644.47	16.305
644.66	16.397
644.85	20.073
645.04	19.600
645.23	17.432
645.41	16.161
645.60	18.411
645.79	17.746
645.98	18.365
646.17	18.593
646.36	18.612
646.55	17.731
646.74	18.035
646.93	16.977
647.12	15.112
647.31	18.155
647.49	19.820
647.68	19.735
647.87	22.737
648.06	24.601
648.25	22.795
648.44	24.176
648.63	24.946
648.82	25.420
649.01	27.055
649.20	25.957
649.38	22.824
649.57	23.454
649.76	23.481
649.95	22.839
650.14	19.347
650.33	19.744
650.52	18.634
650.71	20.358
650.89	19.961
651.08	17.386
651.27	20.717
651.46	19.868
651.65	18.412
651.84	18.016
652.03	17.172
652.22	19.418
652.40	18.979
652.59	19.376
652.78	17.875
652.97	17.199
653.16	19.928
653.35	18.891
653.54	22.744
653.72	22.439
653.91	22.367
654.10	22.768
654.29	23.554
654.48	25.504
654.67	26.763
654.85	25.558
655.04	25.631
655.23	25.277
655.42	26.203
655.61	24.122
655.80	22.984
655.98	22.992
656.17	24.264
656.36	23.941
656.55	24.609
656.74	23.583
656.93	23.546
657.11	24.102
657.30	22.301
657.49	21.158
657.68	21.509
657.87	24.406
658.06	24.241
658.24	22.982
658.43	21.649
658.62	21.423
658.81	21.418
659.00	22.512
659.18	21.147
659.37	21.083
659.56	20.105
659.75	20.198
659.94	20.019
660.12	20.078
660.31	20.505
660.50	19.910
660.69	19.373
660.88	17.612
661.06	18.159
661.25	20.248
661.44	19.814
661.63	20.412
661.81	19.522
662.00	18.862
662.19	17.340
662.38	16.808
662.57	18.840
662.75	19.223
662.94	22.091
663.13	20.550
663.32	19.106
663.50	19.768
663.69	18.869
663.88	18.904
664.07	19.501
664.25	20.012
664.44	19.769
664.63	17.136
664.82	16.872
665.00	14.696
665.19	15.953
665.38	15.330
665.57	16.698
665.75	17.882
665.94	19.731
666.13	19.440
666.32	20.765
666.50	20.801
666.69	23.772
666.88	22.961
667.07	22.974
667.25	22.471
667.44	22.647
667.63	22.167
667.82	22.312
668.00	21.336
668.19	22.523
668.38	20.703
668.56	18.296
668.75	15.899
668.94	16.488
669.13	16.458
669.31	14.952
669.50	14.714
669.69	14.837
669.88	15.845
670.06	14.518
670.25	11.668
670.44	12.963
670.62	13.964
670.81	16.204
671.00	16.106
671.18	18.167
671.37	19.663
671.56	21.208
671.75	20.688
671.93	18.904
672.12	20.989
672.31	21.645
672.49	22.217
672.68	24.766
672.87	23.975
673.05	25.394
673.24	22.948
673.43	22.188
673.61	20.594
673.80	21.775
673.99	21.260
674.17	22.453
674.36	23.079
674.55	22.658
674.73	20.639
674.92	20.241
675.11	19.484
675.29	20.760
675.48	20.750
675.67	21.860
675.85	19.540
676.04	21.911
676.23	19.782
676.41	20.767
676.60	21.009
676.79	22.225
676.97	23.030
677.16	23.020
677.35	23.527
677.53	23.135
677.72	23.773
677.91	23.163
678.09	21.854
678.28	23.253
678.47	21.643
678.65	21.534
678.84	21.954
679.02	21.142
679.21	20.343
679.40	19.701
679.58	20.956
679.77	21.826
679.96	23.949
680.14	23.777
680.33	23.847
680.51	24.510
680.70	25.049
680.89	23.358
681.07	23.557
681.26	23.405
681.44	22.322
681.63	22.252
681.82	21.696
682.00	22.624
682.19	23.406
682.38	22.819
682.56	21.688
682.75	20.250
682.93	22.302
683.12	24.060
683.31	23.462
683.49	24.453
683.68	23.878
683.86	22.597
684.05	21.334
684.23	20.353
684.42	20.452
684.61	21.818
684.79	21.079
684.98	20.540
685.16	15.624
685.35	17.172
685.54	14.485
685.72	13.604
685.91	12.235
686.09	12.209
686.28	11.984
686.46	9.790
686.65	11.210
686.83	10.479
687.02	12.443
687.21	15.255
687.39	16.876
687.58	19.257
687.76	17.447
687.95	16.836
688.13	15.777
688.32	14.972
688.50	15.252
688.69	16.691
688.88	17.539
689.06	13.238
689.25	13.416
689.43	12.624
689.62	10.491
689.80	14.137
689.99	15.395
690.17	16.401
690.36	20.824
690.54	21.571
690.73	20.252
690.91	21.915
691.10	22.576
691.29	21.621
691.47	23.507
691.66	26.512
691.84	27.176
692.03	27.715
692.21	26.247
692.40	26.525
692.58	30.083
692.77	29.716
692.95	28.852
693.14	31.087
693.32	31.276
693.51	27.935
693.69	27.225
693.88	24.569
694.06	25.833
694.25	27.031
694.43	23.561
694.62	19.451
694.80	16.392
694.99	17.015
695.17	16.537
695.36	17.510
695.54	16.663
695.73	15.903
695.91	19.557
696.10	17.475
696.28	17.333
696.47	17.007
696.65	18.370
696.84	19.439
697.02	19.875
697.20	21.639
697.39	22.179
697.57	22.988
697.76	23.252
697.94	19.263
698.13	20.685
698.31	21.208
698.50	23.016
698.68	20.836
698.87	20.246
699.05	19.802
699.24	18.229
699.42	18.672
699.60	18.126
699.79	19.603
699.97	21.839
700.16	22.763
700.34	23.103
700.53	23.494
700.71	24.682
700.90	25.682
701.08	25.479
701.26	24.077
701.45	23.941
701.63	23.261
701.82	20.082
702.00	19.513
702.19	20.233
702.37	17.683
702.55	15.322
702.74	17.217
702.92	20.135
703.11	20.802
703.29	20.739
703.48	19.822
703.66	23.068
703.84	26.616
704.03	28.500
704.21	28.002
704.40	28.758
704.58	27.742
704.76	25.961
704.95	23.555
705.13	21.907
705.32	24.358
705.50	25.803
705.68	22.076
705.87	24.527
706.05	22.191
706.24	21.595
706.42	20.152
706.60	20.947
706.79	24.391
706.97	26.291
707.15	26.612
707.34	27.287
707.52	28.114
707.71	31.280
707.89	27.800
708.07	24.882
708.26	24.933
708.44	28.033
708.62	29.152
708.81	26.206
708.99	24.956
709.18	28.817
709.36	28.932
709.54	27.753
709.73	29.956
709.91	32.190
710.09	36.131
710.28	34.949
710.46	29.766
710.64	30.201
710.83	27.256
711.01	29.158
711.19	29.123
711.38	27.722
711.56	26.837
711.74	23.986
711.93	26.577
712.11	23.622
712.30	21.904
712.48	23.927
712.66	24.054
712.85	26.441
713.03	19.466
713.21	17.746
713.39	18.579
713.58	20.076
713.76	20.956
713.94	18.382
714.13	21.227
714.31	23.134
714.49	22.225
714.68	21.004
714.86	21.969
715.04	28.818
715.23	26.982
715.41	25.666
715.59	24.541
715.78	23.944
715.96	22.155
716.14	21.693
716.32	22.358
716.51	25.598
716.69	26.104
716.87	21.380
717.06	20.205
717.24	21.457
717.42	22.608
717.61	21.981
717.79	19.382
717.97	20.071
718.15	20.439
718.34	21.014
718.52	20.093
718.70	18.879
718.88	23.866
719.07	22.996
719.25	22.628
719.43	22.056
719.62	25.330
719.80	29.378
719.98	28.515
720.16	27.111
720.35	28.167
720.53	25.000
720.71	21.325
720.89	22.324
721.08	19.364
721.26	22.290
721.44	22.731
721.62	22.153
721.81	20.616
721.99	20.706
722.17	17.513
722.35	16.185
722.54	23.845
722.72	28.409
722.90	27.881
723.08	30.112
723.27	27.217
723.45	26.549
723.63	24.511
723.81	22.064
724.00	22.486
724.18	23.640
724.36	21.366
724.54	18.769
724.72	20.026
724.91	16.578
725.09	18.669
725.27	16.158
725.45	18.698
725.64	15.577
725.82	20.264
726.00	24.578
726.18	25.747
726.36	24.329
726.55	26.018
726.73	26.462
726.91	31.689
727.09	29.637
727.27	33.572
727.46	33.800
727.64	38.974
727.82	37.051
728.00	35.591
728.18	37.682
728.37	40.462
728.55	39.739
728.73	39.907
728.91	40.227
729.09	40.464
729.27	41.503
729.46	40.213
729.64	38.459
729.82	37.943
730.00	35.377
730.18	32.375
730.36	30.405
730.55	27.235
730.73	23.072
730.91	21.797
731.09	24.026
731.27	18.671
731.45	14.393
731.64	16.502
731.82	17.526
732.00	20.247
732.18	21.937
732.36	20.230
732.54	24.057
732.73	30.676
732.91	31.614
733.09	31.721
733.27	36.231
733.45	39.537
733.63	37.496
733.81	39.938
734.00	39.495
734.18	37.517
734.36	36.163
734.54	32.146
734.72	34.619
734.90	29.481
735.08	24.027
735.26	20.596
735.45	14.354
735.63	11.514
735.81	4.039
735.99	2.349
736.17	9.023
736.35	19.840
736.53	25.540
736.71	19.864
736.89	22.588
737.08	27.027
737.26	25.569
737.44	31.882
737.62	35.833
737.80	39.089
737.98	45.570
738.16	41.601
738.34	35.010
738.52	35.432
738.70	33.881
738.89	35.207
739.07	37.451
739.25	40.877
739.43	44.005
739.61	37.121
739.79	37.015
739.97	31.985
740.15	37.099
740.33	44.318
740.51	39.641
740.69	37.148
740.87	38.754
741.06	34.411
741.24	33.810
741.42	32.143
741.60	39.508
741.78	39.563
741.96	43.485
742.14	39.959
742.32	33.282
742.50	35.847
742.68	39.280
742.86	30.486
743.04	29.762
743.22	31.268
743.40	27.665
743.58	27.305
743.76	29.476
743.94	22.646
744.12	25.203
744.30	28.841
744.49	35.248
744.67	41.421
744.85	46.170
745.03	52.267
745.21	53.957
745.39	51.086
745.57	52.455
745.75	48.974
745.93	56.407
746.11	53.657
746.29	52.715
746.47	44.526
746.65	41.071
746.83	44.390
747.01	42.592
747.19	39.443
747.37	45.956
747.55	46.343
747.73	43.397
747.91	44.444
748.09	45.246
748.27	43.505
748.45	46.150
748.63	38.412
748.81	37.033
748.99	34.437
749.17	31.523
749.35	24.640
749.53	23.940
749.71	22.983
749.89	22.449
750.07	24.615
750.25	20.103
750.43	18.044
750.61	22.070
750.79	21.394
750.97	24.572
751.15	26.907
751.33	32.118
751.51	30.026
751.69	36.774
751.87	28.926
752.05	24.879
752.23	21.849
752.40	25.849
752.58	23.247
752.76	26.725
752.94	26.590
753.12	31.321
753.30	30.910
753.48	36.685
753.66	35.437
753.84	42.360
754.02	45.244
754.20	52.267
754.38	44.537
754.56	47.458
754.74	44.036
754.92	42.674
755.10	39.963
755.28	37.164
755.46	31.787
755.64	30.237
755.81	27.720
755.99	28.719
756.17	27.197
756.35	33.057
756.53	30.425
756.71	30.503
756.89	30.365
757.07	27.343
757.25	30.794
757.43	31.253
757.61	32.145
757.79	34.731
757.96	35.545
758.14	39.615
758.32	36.849
758.50	40.833
758.68	42.864
758.86	41.334
759.04	40.372
759.22	42.385
759.40	42.331
759.58	42.805
759.75	38.921
759.93	34.914
760.11	35.487
760.29	35.781
760.47	33.350
760.65	30.609
760.83	31.177
761.01	34.410
761.19	29.817
761.36	30.273
761.54	27.563
761.72	31.256
761.90	32.281
762.08	32.635
762.26	38.469
762.44	39.619
762.62	38.950
762.79	36.589
762.97	36.738
763.15	35.483
763.33	32.934
763.51	32.719
763.69	28.136
763.87	30.118
764.04	27.736
764.22	21.838
764.40	23.251
764.58	24.503
764.76	26.115
764.94	21.615
765.11	24.018
765.29	29.966
765.47	30.874
765.65	33.309
765.83	35.524
766.01	36.461
766.18	38.400
766.36	36.138
766.54	33.456
766.72	35.688
766.90	36.975
767.08	38.346
767.25	32.614
767.43	34.156
767.61	34.771
767.79	33.725
767.97	29.694
768.14	28.318
768.32	28.996
768.50	30.296
768.68	25.206
768.86	31.187
769.03	26.415
769.21	32.744
769.39	31.510
769.57	27.519
769.75	23.448
769.92	23.275
770.10	24.667
770.28	19.987
770.46	26.750
770.64	31.923
770.81	38.308
770.99	39.849
771.17	34.898
771.35	38.176
771.53	39.538
771.70	44.082
771.88	41.518
772.06	44.058
772.24	49.212
772.41	47.448
772.59	44.924
772.77	41.542
772.95	45.341
773.12	48.059
773.30	42.778
773.48	52.410
773.66	53.451
773.84	60.211
774.01	44.972
774.19	48.599
774.37	53.004
774.55	47.529
774.72	39.106
774.90	33.904
775.08	47.655
775.25	52.511
775.43	58.237
775.61	50.150
775.79	51.064
775.96	70.845
776.14	63.747
776.32	54.529
776.50	53.375
776.67	60.021
776.85	61.026
777.03	52.108
777.21	45.192
777.38	26.514
777.56	28.345
777.74	24.513
777.91	23.970
778.09	42.227
778.27	36.923
778.45	44.331
778.62	50.467
778.80	50.372
778.98	47.430
779.15	48.177
779.33	51.496
779.51	51.075
779.68	50.518
779.86	56.287
780.04	44.978
780.22	42.773
780.39	43.618
780.57	33.995
780.75	39.548
780.92	39.932
781.10	32.763
781.28	29.078
781.45	30.824
781.63	33.478
781.81	24.375
781.98	20.230
782.16	29.956
782.34	36.719
782.51	40.192
782.69	25.000
782.87	23.627
783.04	36.572
783.22	43.868
783.40	40.102
783.57	48.673
783.75	58.963
783.93	62.754
784.10	66.698
784.28	60.098
784.46	59.790
784.63	72.541
784.81	71.188
784.99	68.229
785.16	66.302
785.34	59.487
785.52	64.136
785.69	64.348
785.87	59.948
786.04	55.302
786.22	47.806
786.40	56.873
786.57	53.508
786.75	48.139
786.93	50.139
787.10	47.947
787.28	56.309
787.45	47.077
787.63	39.522
787.81	50.701
787.98	44.936
788.16	44.193
788.34	34.422
788.51	42.119
788.69	46.438
788.86	50.755
789.04	47.875
789.22	49.416
789.39	38.954
789.57	52.963
789.74	43.979
789.92	41.280
790.10	44.679
790.27	43.053
790.45	36.779
790.62	32.809
790.80	20.062
790.97	22.604
791.15	19.195
791.33	27.483
791.50	12.077
791.68	14.668
791.85	15.868
792.03	16.760
792.21	23.035
792.38	27.030
792.56	28.351
792.73	45.620
792.91	35.012
793.08	47.051
793.26	31.209
793.44	42.581
793.61	28.571
793.79	46.244
793.96	25.251
794.14	21.366
794.31	6.967
794.49	8.987
794.66	-13.832
794.84	14.352
795.01	15.949
795.19	39.012
795.37	32.902
795.54	35.265
795.72	44.030
795.89	50.774
796.07	48.605
796.24	57.440
796.42	58.521
796.59	55.692
796.77	58.326
796.94	57.949
797.12	41.942
797.29	53.649
797.47	65.298
797.64	53.464
797.82	54.931
797.99	58.455
798.17	47.403
798.35	47.303
798.52	56.094
798.70	43.273
798.87	46.314
799.05	58.000
799.22	42.561
799.40	22.097
799.57	23.877
799.75	26.273
799.92	24.181
800.10	30.972
800.27	28.029
800.45	23.889
800.62	35.203
800.79	32.649
800.97	37.048
801.14	36.133
801.32	39.444
801.49	35.670
801.67	32.342
801.84	34.430
802.02	30.748
802.19	46.082
802.37	50.143
802.54	57.781
802.72	58.803
802.89	53.653
803.07	60.263
803.24	65.586
803.42	77.647
803.59	85.777
803.76	80.000
803.94	79.365
804.11	71.858
804.29	79.765
804.46	73.866
804.64	67.416
804.81	74.904
804.99	71.353
805.16	64.943
805.34	58.322
805.51	62.328
805.68	62.687
805.86	58.322
806.03	47.059
806.21	38.141
806.38	29.985
806.56	45.130
806.73	38.921
806.90	41.678
807.08	44.595
807.25	37.557
807.43	34.247
807.60	29.290
807.78	34.234
807.95	45.018
808.12	57.882
808.30	62.892
808.47	60.600
808.65	85.438
808.82	74.355
808.99	75.648
809.17	61.948
809.34	55.099
809.52	60.669
809.69	72.666
809.86	74.003
810.04	61.071
810.21	56.844
810.39	51.941
810.56	31.181
810.73	40.261
810.91	35.034
811.08	36.017
811.25	49.435
811.43	56.196
811.60	54.125
811.78	62.211
811.95	59.554
812.12	59.589
812.30	63.937
812.47	56.199
812.64	70.404
812.82	77.987
812.99	77.281
813.17	71.971
813.34	71.933
813.51	70.537
813.69	61.812
813.86	70.506
814.03	68.839
814.21	69.630
814.38	78.439
814.55	75.627
814.73	65.116
814.90	76.772
815.07	74.838
815.25	78.160
815.42	77.778
815.59	69.200
815.77	42.420
815.94	41.493
816.11	58.345
816.29	62.533
816.46	56.148
816.63	52.459
816.81	37.294
816.98	48.527
817.15	24.306
817.33	26.203
817.50	45.703
817.67	74.366
817.85	74.510
818.02	65.758
818.19	72.449
818.37	60.254
818.54	81.543
818.71	87.442
818.88	79.685
819.06	97.840
819.23	81.545
819.40	60.982
819.58	41.616
819.75	43.906
819.92	44.118
820.09	32.510
820.27	38.729
820.44	23.882
820.61	17.853
820.79	20.988
820.96	18.373
821.13	21.875
821.30	31.265
821.48	36.072
821.65	32.656
821.82	26.671
822.00	25.932
822.17	22.641
822.34	28.334
822.51	26.618
822.69	24.130
822.86	26.005
823.03	25.440
823.20	20.309
823.38	19.959
823.55	20.884
823.72	22.912
823.89	22.835
824.07	23.643
824.24	20.091
824.41	21.447
824.58	22.244
824.76	23.313
824.93	25.119
825.10	29.508
825.27	28.780
825.45	26.216
825.62	23.947
825.79	23.396
825.96	23.048
826.13	25.749
826.31	26.140
826.48	25.400
826.65	21.717
826.82	19.985
827.00	24.620
827.17	25.515
827.34	27.464
827.51	28.080
827.68	28.376
827.86	28.282
828.03	24.850
828.20	25.889
828.37	22.647
828.54	22.084
828.72	24.902
828.89	16.806
829.06	20.526
829.23	25.614
829.40	29.875
829.58	32.605
829.75	35.062
829.92	41.749
830.09	39.297
830.26	41.624
830.44	52.131
830.61	51.940
830.78	54.054
830.95	49.142
831.12	38.587
831.29	36.331
831.47	30.618
831.64	29.508
831.81	23.681
831.98	26.974
832.15	46.729
832.32	52.612
832.50	56.061
832.67	52.011
832.84	55.820
833.01	62.645
833.18	63.064
833.35	63.853
833.53	73.786
833.70	63.382
833.87	65.881
834.04	50.662
834.21	40.089
834.38	48.049
834.55	55.635
834.72	48.459
834.90	51.518
835.07	42.739
835.24	44.279
835.41	35.221
835.58	38.320
835.75	35.673
835.92	41.266
836.10	40.155
836.27	34.393
836.44	36.686
836.61	26.245
836.78	23.477
836.95	32.302
837.12	32.374
837.29	30.301
837.46	46.994
837.64	53.388
837.81	53.061
837.98	55.142
838.15	46.878
838.32	40.102
838.49	47.502
838.66	50.132
838.83	47.834
839.00	42.293
839.17	53.527
839.34	44.677
839.52	40.556
839.69	42.273
839.86	51.660
840.03	60.832
840.20	65.198
840.37	78.090
840.54	71.525
840.71	73.077
840.88	90.338
841.05	77.727
841.22	69.322
841.39	71.147
841.56	89.016
841.74	73.602
841.91	74.035
842.08	73.308
842.25	75.195
842.42	79.853
842.59	74.134
842.76	41.595
842.93	47.983
843.10	59.763
843.27	49.659
843.44	45.710
843.61	38.869
843.78	35.088
843.95	24.400
844.12	22.770
844.29	40.550
844.46	52.695
844.63	81.405
844.80	67.672
844.97	63.438
845.14	52.301
845.31	-14.000
845.48	49.107
845.65	47.264
845.82	85.350
845.99	61.484
846.16	90.854
846.33	50.000
846.50	92.857
846.67	-2320.000
846.85	664.706
847.02	358.974
847.19	305.288
847.36	531.132
847.53	1523.684
847.70	471.642
847.87	2409.091
848.03	514.563
848.20	297.608
848.37	271.505
848.54	202.500
848.71	166.250
848.88	205.825
849.05	128.244
849.22	72.727
849.39	38.889
849.56	-64.773
849.73	-366.667
849.90	-174.468
850.07	185.714
850.24	-100.000
850.41	111.628
850.58	361.538
850.75	114.925
850.92	156.849
851.09	228.448
851.26	-1994.444
851.43	572.464
851.60	288.312
851.77	3615.385
851.94	585.714
852.11	584.746
852.28	-447.368
852.45	-597.260
852.62	-414.423
852.79	-201.183
852.96	-463.768
853.12	-250.000
853.29	-114.159
853.46	-49.697
853.63	-106.393
853.80	-104.762
853.97	-96.129
854.14	-89.324
854.31	-107.547
854.48	-296.190
854.65	-264.865
854.82	1022.642
854.99	440.179
855.16	217.672
855.33	200.435
855.49	183.092
855.66	204.167
855.83	114.552
856.00	76.923
856.17	43.878
856.34	87.692
856.51	42.786
856.68	-3.896
856.85	121.739
857.02	808.333
857.18	91.713
857.35	273.626
857.52	165.441
857.69	177.778
857.86	270.000
858.03	331.405
858.20	-612.245
858.37	-485.938
858.54	744.000
858.70	148.760
858.87	144.444
859.04	-237.209
859.21	306.061
859.38	682.353
859.55	-386.364
859.72	279.104
859.89	51.261
860.05	18.482
860.22	50.369
860.39	56.836
860.56	69.733
860.73	89.583
860.90	88.184
861.07	83.807
861.23	89.696
861.40	60.985
861.57	78.302
861.74	113.953
861.91	219.283
862.08	1461.290
862.24	56200.000
862.41	-485.149
862.58	-239.726
862.75	-879.592
862.92	-700.000
863.09	739.344
863.25	-7214.286
863.42	648.864
863.59	578.302
863.76	431.200
863.93	252.709
864.10	286.806
864.26	349.462
864.43	175.182
864.60	158.333
864.77	179.213
864.94	1167.857
865.10	203.053
865.27	247.674
865.44	143.558
865.61	105.714
865.78	64.497
865.94	60.937
866.11	119.929
866.28	202.400
866.45	252.500
866.62	253.571
866.78	157.823
866.95	323.684
867.12	234.483
867.29	213.240
867.46	258.389
867.62	214.834
867.79	230.854
867.96	182.339
868.13	190.698
868.29	182.906
868.46	185.498
868.63	147.263
868.80	132.493
868.97	140.709
869.13	139.841
869.30	125.917
869.47	197.260
869.64	276.074
869.80	309.924
869.97	205.714
870.14	166.438
870.31	195.455
870.47	-1842.857
870.64	27700.000
870.81	-4050.000
870.98	925.641
871.14	-4280.000
871.31	260.000
871.48	242.920
871.65	217.361
871.81	176.341
871.98	237.329
872.15	251.822
872.31	232.963
872.48	219.259
872.65	190.459
872.82	224.823
872.98	108.997
873.15	104.724
873.32	55.794
873.48	53.527
873.65	100.897
873.82	83.525
873.99	59.193
874.15	77.455
874.32	73.418
874.49	105.785
874.65	108.924
874.82	115.000
874.99	127.126
875.16	193.119
875.32	286.620
875.49	279.874
875.66	226.705
875.82	189.344
875.99	255.970
876.16	-21500.000
876.32	3620.000
876.49	-80.247
876.66	2516.667
876.82	-252.174
876.99	-50.000
877.16	208.571
877.32	-628.571
877.49	307.895
877.66	15.152
877.82	41.489
877.99	70.120
878.16	96.831
878.32	92.857
878.49	96.205
878.66	94.770
878.82	91.555
878.99	82.332
879.16	126.891
879.32	105.428
879.49	112.400
879.66	147.443
879.82	128.571
879.99	165.116
880.16	748.889
880.32	383.761
880.49	736.364
880.65	-3530.769
880.82	960.656
880.99	564.557
881.15	9175.000
881.32	428.395
881.49	181.659
881.65	333.571
881.82	166.981
881.98	110.074
882.15	99.512
882.32	85.593
882.48	90.355
882.65	87.207
882.82	75.197
882.98	70.349
883.15	77.710
883.31	76.528
883.48	57.555
883.65	62.031
883.81	66.608
883.98	52.632
884.14	43.907
884.31	38.743
884.48	32.734
884.64	39.108
884.81	36.290
884.97	35.434
885.14	33.128
885.30	31.748
885.47	26.158
885.64	23.843
885.80	37.500
885.97	27.433
886.13	37.916
886.30	50.238
886.47	50.174
886.63	57.804
886.80	59.865
886.96	55.352
887.13	61.159
887.29	54.241
887.46	59.836
887.62	54.819
887.79	65.862
887.96	54.987
888.12	-200.000
888.29	205.263
888.45	11.538
888.62	104.950
888.78	359.091
>>>>>End Processed Spectral Data<<<<<
