SpectraSuite Data File
++++++++++++++++++++++++++++++++++++
Date: Mon Jan 12 10:55:21 EST 2009
User: Lex
Dark Spectrum Present: Yes
Reference Spectrum Present: Yes
Number of Sampled Component Spectra: 1
Spectrometers: USB4E03001
Integration Time (usec): 100000 (USB4E03001)
Spectra Averaged: 5 (USB4E03001)
Boxcar Smoothing: 5 (USB4E03001)
Correct for Electrical Dark: No (USB4E03001)
Strobe/Lamp Enabled: Yes (USB4E03001)
Correct for Detector Non-linearity: No (USB4E03001)
Correct for Stray Light: No (USB4E03001)
Number of Pixels in Processed Spectrum: 3648
>>>>>Begin Processed Spectral Data<<<<<
177.57	-440.000
177.79	-440.000
178.01	-440.000
178.23	640.000
178.45	198.305
178.66	576.974
178.88	401.990
179.10	292.565
179.32	220.462
179.54	171.649
179.76	130.310
179.98	164.463
180.20	163.333
180.42	164.127
180.64	457.609
180.86	811.538
181.08	220.513
181.30	280.105
181.52	377.372
181.74	1204.000
181.96	-2984.211
182.18	-957.143
182.40	-771.233
182.62	-3216.667
182.84	-1010.000
183.06	4286.667
183.28	931.343
183.50	-604.762
183.72	-718.571
183.94	-628.571
184.16	325.000
184.38	-226.471
184.60	-170.588
184.82	476.744
185.04	3150.000
185.26	248.077
185.48	-425.000
185.69	-93.333
185.91	-101.613
186.13	95.238
186.35	26.230
186.57	-177.358
186.79	163.636
187.01	258.571
187.23	-178.261
187.45	-133.019
187.67	-137.681
187.89	-264.516
188.11	453.247
188.33	793.103
188.55	-231.579
188.77	-2588.889
188.99	230.108
189.21	164.800
189.42	119.512
189.64	220.968
189.86	286.316
190.08	175.758
190.30	182.353
190.52	2425.000
190.74	195.213
190.96	483.333
191.18	-757.143
191.40	-137.158
191.62	-67.450
191.84	-83.178
192.06	-50.987
192.27	-53.247
192.49	-84.649
192.71	-428.070
192.93	-130.233
193.15	4.620
193.37	-39.459
193.59	-64.348
193.81	-158.889
194.03	-290.411
194.25	-171.304
194.47	4883.333
194.68	-502.985
194.90	-504.000
195.12	-193.233
195.34	865.789
195.56	405.556
195.78	522.414
196.00	295.000
196.22	158.462
196.44	187.755
196.66	142.969
196.87	177.660
197.09	119.841
197.31	189.565
197.53	-833.333
197.75	1783.333
197.97	1100.000
198.19	-480.435
198.41	-300.000
198.63	-81.356
198.84	-516.667
199.06	-170.690
199.28	-120.635
199.50	-130.000
199.72	-185.276
199.94	-928.302
200.16	-177.985
200.38	-147.297
200.59	-235.714
200.81	-234.875
201.03	-364.000
201.25	-269.884
201.47	-1038.889
201.69	1230.986
201.91	575.862
202.13	391.358
202.34	430.890
202.56	270.234
202.78	215.954
203.00	251.373
203.22	181.188
203.44	212.367
203.66	190.106
203.87	259.281
204.09	237.931
204.31	2180.000
204.53	-55.172
204.75	190.476
204.97	158.025
205.19	443.750
205.40	720.000
205.62	466.667
205.84	46.774
206.06	-673.333
206.28	249.640
206.50	487.692
206.71	211.892
206.93	197.333
207.15	295.349
207.37	403.448
207.59	354.487
207.81	257.872
208.02	190.278
208.24	176.240
208.46	156.772
208.68	124.471
208.90	123.000
209.12	168.581
209.33	228.384
209.55	116.768
209.77	127.298
209.99	117.381
210.21	168.224
210.43	207.925
210.64	254.839
210.86	196.283
211.08	558.750
211.30	804.082
211.52	520.833
211.74	459.184
211.95	1071.698
212.17	541.860
212.39	365.741
212.61	127.099
212.83	76.289
213.04	122.034
213.26	175.325
213.48	203.200
213.70	174.684
213.92	117.989
214.13	71.564
214.35	68.803
214.57	164.972
214.79	-2554.545
215.01	-364.706
215.22	-1431.250
215.44	419.685
215.66	546.429
215.88	340.000
216.10	889.474
216.31	-607.937
216.53	-237.500
216.75	-155.621
216.97	-32.287
217.19	-123.636
217.40	-535.714
217.62	-159.259
217.84	-17.901
218.06	-46.053
218.27	-35.789
218.49	-138.318
218.71	-723.529
218.93	-726.667
219.15	-1620.000
219.36	-435.000
219.58	-477.551
219.80	4485.714
220.02	295.968
220.23	184.362
220.45	139.241
220.67	105.419
220.89	154.037
221.11	387.500
221.32	5120.000
221.54	-283.621
221.76	3375.000
221.98	587.324
222.19	-847.222
222.41	-475.000
222.63	-152.247
222.85	-511.538
223.06	-1138.889
223.28	-1071.875
223.50	-197.938
223.72	-306.818
223.93	131.944
224.15	40.299
224.37	131.429
224.59	-246.154
224.80	-82.051
225.02	81.034
225.24	36.538
225.46	49.495
225.67	-34.682
225.89	3350.000
226.11	469.863
226.33	427.692
226.54	723.077
226.76	388.785
226.98	1111.765
227.20	972.727
227.41	318.182
227.63	336.567
227.85	206.691
228.06	103.874
228.28	98.997
228.50	78.373
228.72	83.423
228.93	56.227
229.15	55.692
229.37	47.874
229.59	52.797
229.80	40.964
230.02	45.759
230.24	46.811
230.45	64.915
230.67	68.642
230.89	70.413
231.11	73.849
231.32	85.320
231.54	100.473
231.76	84.134
231.97	116.185
232.19	126.346
232.41	120.968
232.63	129.130
232.84	109.697
233.06	92.733
233.28	91.768
233.49	95.413
233.71	77.676
233.93	65.631
234.14	85.662
234.36	74.344
234.58	84.187
234.79	71.818
235.01	77.908
235.23	74.337
235.45	71.501
235.66	82.104
235.88	83.956
236.10	93.533
236.31	125.773
236.53	147.959
236.75	317.647
236.96	547.619
237.18	641.667
237.40	316.981
237.61	-156.000
237.83	-1125.000
238.05	-156.410
238.26	-94.118
238.48	29.412
238.70	41.102
238.91	-2.703
239.13	-7.489
239.35	-29.553
239.56	-124.603
239.78	-900.000
240.00	-81.319
240.21	-149.206
240.43	5.338
240.65	27.225
240.86	36.499
241.08	28.665
241.30	26.621
241.51	22.430
241.73	34.751
241.95	47.236
242.16	45.271
242.38	40.979
242.60	34.250
242.81	34.842
243.03	25.191
243.25	21.884
243.46	24.023
243.68	34.489
243.90	40.778
244.11	31.546
244.33	29.476
244.55	21.112
244.76	25.992
244.98	25.919
245.19	16.888
245.41	9.496
245.63	13.291
245.84	21.341
246.06	18.436
246.28	15.120
246.49	23.376
246.71	15.349
246.92	15.668
247.14	17.030
247.36	18.644
247.57	25.817
247.79	33.504
248.01	35.614
248.22	30.689
248.44	24.985
248.65	29.164
248.87	23.122
249.09	34.725
249.30	40.363
249.52	40.467
249.74	36.604
249.95	22.722
250.17	25.784
250.38	27.019
250.60	24.313
250.82	33.892
251.03	25.943
251.25	31.556
251.46	33.181
251.68	29.892
251.90	32.542
252.11	38.086
252.33	43.086
252.54	33.616
252.76	41.712
252.98	42.222
253.19	43.316
253.41	54.829
253.62	60.470
253.84	51.536
254.06	49.272
254.27	37.255
254.49	45.931
254.70	46.410
254.92	62.546
255.14	40.444
255.35	49.939
255.57	50.230
255.78	50.068
256.00	40.890
256.21	39.233
256.43	42.404
256.65	41.160
256.86	34.895
257.08	30.257
257.29	16.809
257.51	20.924
257.72	12.533
257.94	8.550
258.16	-1.975
258.37	0.199
258.59	2.609
258.80	-2.179
259.02	3.813
259.23	3.251
259.45	2.588
259.66	4.661
259.88	7.239
260.10	9.724
260.31	11.985
260.53	17.673
260.74	13.073
260.96	11.627
261.17	14.121
261.39	12.741
261.60	13.062
261.82	15.951
262.04	23.732
262.25	25.415
262.47	26.755
262.68	23.403
262.90	17.105
263.11	30.305
263.33	30.934
263.54	34.875
263.76	40.331
263.97	45.900
264.19	53.559
264.40	40.458
264.62	44.683
264.84	33.569
265.05	27.304
265.27	28.375
265.48	21.734
265.70	18.938
265.91	16.730
266.13	9.532
266.34	12.733
266.56	5.935
266.77	10.490
266.99	-8.398
267.20	5.088
267.42	9.011
267.63	10.310
267.85	9.436
268.06	11.754
268.28	11.162
268.49	13.720
268.71	9.839
268.92	17.352
269.14	14.717
269.35	24.975
269.57	23.342
269.78	20.354
270.00	16.547
270.21	13.615
270.43	18.084
270.64	15.127
270.86	16.077
271.07	15.916
271.29	12.635
271.50	9.655
271.72	14.302
271.93	4.321
272.15	1.347
272.36	3.749
272.58	11.227
272.79	5.158
273.01	8.094
273.22	8.479
273.44	5.063
273.65	12.754
273.87	16.031
274.08	20.978
274.30	30.733
274.51	32.171
274.73	34.130
274.94	29.568
275.16	31.922
275.37	29.439
275.59	33.377
275.80	29.662
276.01	17.593
276.23	20.983
276.44	18.377
276.66	16.269
276.87	20.772
277.09	20.915
277.30	22.120
277.52	27.324
277.73	26.278
277.95	25.400
278.16	23.743
278.38	33.224
278.59	34.811
278.80	32.117
279.02	29.685
279.23	31.563
279.45	32.550
279.66	30.875
279.88	27.336
280.09	32.313
280.31	27.761
280.52	27.150
280.73	25.498
280.95	23.131
281.16	21.576
281.38	22.159
281.59	21.658
281.81	24.002
282.02	23.344
282.24	24.086
282.45	18.770
282.66	19.378
282.88	28.745
283.09	29.195
283.31	29.602
283.52	29.868
283.74	33.626
283.95	27.802
284.16	29.236
284.38	32.347
284.59	32.709
284.81	35.331
285.02	36.610
285.23	37.545
285.45	40.312
285.66	36.067
285.88	34.022
286.09	34.128
286.31	38.021
286.52	36.443
286.73	32.748
286.95	31.849
287.16	29.537
287.38	30.186
287.59	26.155
287.80	25.869
288.02	28.777
288.23	29.049
288.45	28.078
288.66	25.853
288.87	25.253
289.09	24.014
289.30	20.688
289.52	22.217
289.73	19.274
289.94	20.384
290.16	19.048
290.37	19.860
290.58	22.058
290.80	16.922
291.01	20.456
291.23	15.030
291.44	18.601
291.65	21.973
291.87	24.946
292.08	30.603
292.29	30.206
292.51	28.049
292.72	30.838
292.94	25.681
293.15	29.853
293.36	23.221
293.58	31.061
293.79	29.650
294.00	25.025
294.22	16.822
294.43	14.126
294.65	11.781
294.86	12.745
295.07	8.915
295.29	11.268
295.50	9.992
295.71	12.557
295.93	8.818
296.14	11.699
296.35	11.345
296.57	13.174
296.78	13.719
296.99	14.904
297.21	14.001
297.42	13.879
297.63	16.730
297.85	15.198
298.06	19.553
298.28	19.766
298.49	18.615
298.70	19.870
298.92	21.340
299.13	21.859
299.34	19.558
299.56	21.684
299.77	22.992
299.98	22.069
300.20	28.321
300.41	26.008
300.62	30.404
300.84	29.042
301.05	35.750
301.26	34.816
301.47	33.045
301.69	36.703
301.90	36.220
302.11	36.451
302.33	36.087
302.54	35.113
302.75	37.316
302.97	36.111
303.18	38.468
303.39	34.860
303.61	37.011
303.82	33.220
304.03	32.403
304.25	30.851
304.46	32.513
304.67	36.300
304.88	34.610
305.10	28.191
305.31	26.288
305.52	22.810
305.74	22.207
305.95	21.490
306.16	28.502
306.38	25.444
306.59	26.133
306.80	25.047
307.01	20.941
307.23	18.930
307.44	15.694
307.65	17.878
307.87	20.765
308.08	17.074
308.29	18.719
308.50	12.822
308.72	16.073
308.93	12.230
309.14	12.551
309.36	13.992
309.57	13.348
309.78	16.632
309.99	15.557
310.21	16.472
310.42	15.565
310.63	10.671
310.84	13.049
311.06	13.025
311.27	20.917
311.48	20.299
311.70	20.321
311.91	23.268
312.12	23.080
312.33	24.980
312.55	25.205
312.76	30.299
312.97	30.960
313.18	32.013
313.40	33.698
313.61	32.856
313.82	32.200
314.03	28.852
314.25	27.583
314.46	31.286
314.67	25.903
314.88	24.781
315.10	19.974
315.31	22.515
315.52	21.274
315.73	18.811
315.95	14.510
316.16	19.100
316.37	19.493
316.58	19.205
316.80	15.453
317.01	17.222
317.22	16.667
317.43	17.438
317.64	13.237
317.86	20.658
318.07	19.114
318.28	20.522
318.49	17.238
318.71	23.132
318.92	25.664
319.13	27.286
319.34	28.699
319.55	33.088
319.77	39.153
319.98	39.603
320.19	31.192
320.40	34.164
320.62	32.310
320.83	30.925
321.04	30.619
321.25	26.926
321.46	28.200
321.68	29.936
321.89	26.052
322.10	19.081
322.31	17.931
322.52	19.889
322.74	19.831
322.95	22.522
323.16	21.198
323.37	19.213
323.58	21.665
323.80	17.233
324.01	19.798
324.22	22.326
324.43	24.518
324.64	26.552
324.86	28.483
325.07	24.586
325.28	23.424
325.49	25.152
325.70	25.742
325.91	26.047
326.13	31.979
326.34	25.642
326.55	21.098
326.76	21.215
326.97	22.604
327.18	23.862
327.40	27.358
327.61	29.361
327.82	31.383
328.03	29.742
328.24	29.724
328.45	25.821
328.67	30.800
328.88	35.966
329.09	35.392
329.30	37.597
329.51	28.484
329.72	24.473
329.94	25.240
330.15	21.211
330.36	24.466
330.57	21.419
330.78	21.466
330.99	23.229
331.21	19.192
331.42	22.886
331.63	18.088
331.84	25.111
332.05	27.949
332.26	28.262
332.47	32.274
332.69	33.460
332.90	37.411
333.11	40.174
333.32	37.828
333.53	38.105
333.74	40.244
333.95	42.232
334.16	42.171
334.38	41.335
334.59	42.078
334.80	41.474
335.01	39.404
335.22	38.717
335.43	37.966
335.64	38.577
335.85	41.649
336.07	42.299
336.28	39.350
336.49	40.758
336.70	39.123
336.91	34.096
337.12	35.473
337.33	37.758
337.54	39.236
337.76	37.518
337.97	35.262
338.18	31.552
338.39	28.602
338.60	32.572
338.81	29.608
339.02	32.481
339.23	33.063
339.44	32.607
339.65	31.378
339.87	31.458
340.08	30.386
340.29	29.084
340.50	31.248
340.71	28.429
340.92	28.585
341.13	27.889
341.34	29.521
341.55	33.181
341.76	30.419
341.97	28.628
342.19	29.287
342.40	29.673
342.61	30.187
342.82	28.785
343.03	33.816
343.24	30.148
343.45	31.383
343.66	25.261
343.87	20.620
344.08	17.888
344.29	19.468
344.50	15.578
344.71	13.200
344.93	15.751
345.14	14.677
345.35	12.695
345.56	12.606
345.77	10.274
345.98	12.558
346.19	14.071
346.40	14.128
346.61	13.089
346.82	12.517
347.03	16.917
347.24	15.811
347.45	16.734
347.66	13.810
347.87	17.469
348.08	19.843
348.29	20.531
348.50	20.823
348.71	22.247
348.93	21.317
349.14	22.101
349.35	22.863
349.56	22.713
349.77	20.874
349.98	20.113
350.19	16.010
350.40	15.444
350.61	14.612
350.82	15.179
351.03	17.267
351.24	21.274
351.45	21.854
351.66	19.221
351.87	15.966
352.08	17.796
352.29	17.782
352.50	18.579
352.71	21.318
352.92	20.259
353.13	20.586
353.34	21.424
353.55	20.040
353.76	21.461
353.97	22.311
354.18	22.375
354.39	21.496
354.60	23.714
354.81	24.122
355.02	23.569
355.23	23.513
355.44	23.008
355.65	21.263
355.86	16.713
356.07	17.200
356.28	19.631
356.49	22.064
356.70	23.350
356.91	23.879
357.12	23.626
357.33	23.860
357.54	23.987
357.75	24.965
357.96	23.986
358.17	26.626
358.38	23.450
358.59	21.167
358.80	20.991
359.01	20.629
359.22	21.257
359.43	22.387
359.64	21.823
359.85	20.920
360.06	19.987
360.27	20.359
360.48	20.650
360.69	23.261
360.90	23.925
361.11	21.893
361.32	20.430
361.53	17.264
361.74	18.506
361.95	18.035
362.16	20.085
362.37	19.445
362.58	20.653
362.79	19.547
362.99	18.598
363.20	17.889
363.41	17.868
363.62	19.218
363.83	21.573
364.04	19.636
364.25	18.149
364.46	17.679
364.67	18.055
364.88	17.887
365.09	16.977
365.30	16.483
365.51	16.391
365.72	18.811
365.93	18.570
366.14	18.400
366.35	21.164
366.56	19.105
366.76	17.764
366.97	17.739
367.18	18.747
367.39	21.534
367.60	20.755
367.81	19.173
368.02	19.250
368.23	19.724
368.44	17.952
368.65	15.590
368.86	18.397
369.07	19.475
369.28	19.268
369.48	14.656
369.69	10.835
369.90	9.478
370.11	10.505
370.32	9.069
370.53	8.193
370.74	10.133
370.95	11.240
371.16	13.272
371.37	12.362
371.58	12.391
371.78	15.557
371.99	17.226
372.20	18.594
372.41	19.022
372.62	22.197
372.83	23.344
373.04	22.825
373.25	23.819
373.46	21.731
373.67	22.452
373.87	22.487
374.08	22.564
374.29	25.882
374.50	26.109
374.71	25.988
374.92	24.934
375.13	23.650
375.34	23.975
375.55	21.677
375.75	21.200
375.96	22.866
376.17	22.138
376.38	19.832
376.59	18.621
376.80	17.594
377.01	17.049
377.21	14.883
377.42	14.519
377.63	14.352
377.84	14.693
378.05	15.223
378.26	15.403
378.47	15.231
378.68	17.169
378.88	17.790
379.09	17.632
379.30	17.261
379.51	18.614
379.72	19.721
379.93	19.732
380.14	19.606
380.34	17.619
380.55	15.799
380.76	18.195
380.97	16.409
381.18	15.391
381.39	16.543
381.59	18.723
381.80	19.107
382.01	20.676
382.22	20.125
382.43	18.716
382.64	17.151
382.84	20.062
383.05	18.501
383.26	19.580
383.47	20.150
383.68	17.627
383.89	16.015
384.09	14.350
384.30	11.821
384.51	10.497
384.72	12.798
384.93	16.285
385.14	15.377
385.34	15.534
385.55	17.629
385.76	16.449
385.97	17.444
386.18	18.484
386.38	20.422
386.59	21.259
386.80	22.245
387.01	22.323
387.22	22.872
387.42	20.114
387.63	21.684
387.84	21.085
388.05	19.409
388.26	18.988
388.46	18.819
388.67	17.493
388.88	15.660
389.09	13.905
389.30	13.586
389.50	13.545
389.71	16.157
389.92	14.994
390.13	14.726
390.34	15.007
390.54	15.055
390.75	15.051
390.96	16.191
391.17	16.517
391.37	17.697
391.58	17.443
391.79	17.838
392.00	15.257
392.21	15.066
392.41	13.258
392.62	13.992
392.83	15.052
393.04	14.187
393.24	14.391
393.45	15.114
393.66	16.426
393.87	16.254
394.07	14.222
394.28	15.005
394.49	13.545
394.70	12.891
394.91	12.927
395.11	14.367
395.32	14.444
395.53	13.333
395.74	13.693
395.94	12.095
396.15	10.238
396.36	10.313
396.57	11.068
396.77	13.881
396.98	15.076
397.19	13.813
397.40	14.233
397.60	15.485
397.81	16.937
398.02	17.357
398.22	18.870
398.43	20.412
398.64	21.366
398.85	19.504
399.05	16.652
399.26	17.037
399.47	18.363
399.68	16.706
399.88	15.386
400.09	12.987
400.30	11.354
400.50	9.900
400.71	12.032
400.92	9.475
401.13	10.484
401.33	12.326
401.54	12.336
401.75	12.524
401.95	11.969
402.16	11.422
402.37	12.036
402.58	12.475
402.78	13.522
402.99	11.599
403.20	14.897
403.40	15.816
403.61	15.458
403.82	15.482
404.03	15.759
404.23	15.540
404.44	16.726
404.65	16.340
404.85	16.730
405.06	16.489
405.27	15.983
405.47	15.830
405.68	14.599
405.89	13.698
406.09	14.964
406.30	14.395
406.51	15.575
406.71	15.397
406.92	16.029
407.13	17.529
407.34	17.070
407.54	19.829
407.75	17.955
407.96	19.305
408.16	20.522
408.37	18.344
408.58	18.154
408.78	16.703
408.99	16.023
409.20	16.232
409.40	14.506
409.61	13.617
409.82	9.828
410.02	12.057
410.23	11.902
410.44	13.478
410.64	14.804
410.85	14.709
411.05	14.851
411.26	15.511
411.47	15.730
411.67	15.512
411.88	17.365
412.09	18.714
412.29	15.993
412.50	15.940
412.71	14.865
412.91	13.032
413.12	14.635
413.33	15.814
413.53	16.240
413.74	16.694
413.94	17.203
414.15	16.567
414.36	15.760
414.56	17.594
414.77	17.845
414.98	16.901
415.18	17.347
415.39	15.202
415.59	14.506
415.80	13.662
416.01	13.588
416.21	13.493
416.42	12.838
416.63	13.514
416.83	13.769
417.04	11.974
417.24	11.393
417.45	12.356
417.66	13.593
417.86	13.556
418.07	13.071
418.27	12.603
418.48	11.706
418.69	12.617
418.89	12.501
419.10	11.832
419.30	12.794
419.51	13.116
419.72	12.730
419.92	12.717
420.13	13.332
420.33	14.309
420.54	13.225
420.75	13.839
420.95	13.256
421.16	13.728
421.36	14.545
421.57	14.807
421.78	14.998
421.98	14.748
422.19	14.748
422.39	15.042
422.60	14.332
422.80	14.596
423.01	14.488
423.22	14.247
423.42	13.483
423.63	13.136
423.83	12.215
424.04	12.784
424.24	13.696
424.45	13.547
424.66	12.331
424.86	12.885
425.07	13.191
425.27	13.124
425.48	13.432
425.68	13.703
425.89	13.801
426.10	14.391
426.30	14.057
426.51	13.102
426.71	13.231
426.92	13.278
427.12	12.572
427.33	13.400
427.53	12.861
427.74	13.678
427.94	14.101
428.15	13.822
428.36	13.740
428.56	13.760
428.77	14.369
428.97	13.887
429.18	16.010
429.38	16.394
429.59	17.246
429.79	17.774
430.00	17.204
430.20	18.264
430.41	17.413
430.61	17.737
430.82	18.435
431.02	19.016
431.23	18.277
431.43	17.211
431.64	17.144
431.84	15.722
432.05	15.750
432.26	16.081
432.46	14.347
432.67	15.496
432.87	15.710
433.08	14.338
433.28	14.223
433.49	14.299
433.69	13.780
433.90	13.867
434.10	14.360
434.31	15.395
434.51	16.134
434.72	16.961
434.92	17.326
435.13	17.115
435.33	17.863
435.54	17.575
435.74	17.896
435.95	19.101
436.15	18.881
436.36	19.132
436.56	18.825
436.76	19.007
436.97	18.863
437.17	17.531
437.38	17.841
437.58	17.274
437.79	17.489
437.99	17.250
438.20	16.611
438.40	16.877
438.61	17.665
438.81	17.842
439.02	16.667
439.22	15.834
439.43	16.291
439.63	15.119
439.84	15.276
440.04	14.980
440.24	14.856
440.45	14.728
440.65	14.245
440.86	13.510
441.06	12.650
441.27	12.640
441.47	13.933
441.68	13.996
441.88	14.564
442.09	15.295
442.29	14.696
442.49	14.654
442.70	15.727
442.90	15.400
443.11	14.555
443.31	14.750
443.52	14.885
443.72	13.032
443.93	11.981
444.13	12.986
444.33	11.954
444.54	11.850
444.74	12.882
444.95	11.963
445.15	12.293
445.36	13.253
445.56	13.131
445.76	12.805
445.97	13.187
446.17	14.000
446.38	13.488
446.58	14.036
446.79	14.531
446.99	13.775
447.19	14.182
447.40	14.138
447.60	14.122
447.81	14.633
448.01	14.266
448.21	14.055
448.42	13.066
448.62	12.470
448.83	13.300
449.03	13.979
449.23	15.240
449.44	14.431
449.64	15.052
449.85	14.618
450.05	14.957
450.25	15.621
450.46	16.528
450.66	17.747
450.87	18.024
451.07	17.207
451.27	15.856
451.48	14.945
451.68	15.393
451.88	15.075
452.09	15.050
452.29	15.109
452.50	15.783
452.70	14.975
452.90	14.762
453.11	14.185
453.31	13.262
453.51	13.669
453.72	14.117
453.92	12.881
454.13	12.650
454.33	12.068
454.53	12.107
454.74	11.869
454.94	12.883
455.14	13.119
455.35	14.297
455.55	15.016
455.75	16.088
455.96	15.896
456.16	16.739
456.37	17.247
456.57	18.564
456.77	18.210
456.98	17.604
457.18	17.480
457.38	16.572
457.59	15.816
457.79	15.500
457.99	14.627
458.20	14.390
458.40	14.268
458.60	13.513
458.81	12.927
459.01	12.426
459.21	12.611
459.42	12.042
459.62	13.092
459.82	13.381
460.03	13.666
460.23	13.630
460.43	14.273
460.64	14.639
460.84	15.557
461.04	15.835
461.25	15.643
461.45	16.224
461.65	16.323
461.86	15.738
462.06	15.531
462.26	14.572
462.46	14.646
462.67	12.995
462.87	13.011
463.07	12.598
463.28	12.100
463.48	11.837
463.68	10.448
463.89	11.138
464.09	10.917
464.29	10.199
464.49	11.065
464.70	12.119
464.90	13.407
465.10	13.081
465.31	12.823
465.51	12.600
465.71	13.695
465.92	13.777
466.12	14.045
466.32	14.397
466.52	16.307
466.73	16.321
466.93	14.706
467.13	13.838
467.33	12.688
467.54	14.005
467.74	13.777
467.94	13.488
468.15	13.602
468.35	13.168
468.55	13.458
468.75	13.203
468.96	13.938
469.16	15.104
469.36	15.368
469.56	15.762
469.77	14.428
469.97	15.232
470.17	14.955
470.37	15.064
470.58	14.373
470.78	13.365
470.98	13.407
471.18	13.070
471.39	12.748
471.59	13.388
471.79	12.806
471.99	12.746
472.20	12.653
472.40	12.872
472.60	12.737
472.80	13.438
473.01	14.165
473.21	14.638
473.41	15.114
473.61	13.871
473.82	14.858
474.02	15.748
474.22	16.614
474.42	16.353
474.63	16.193
474.83	16.622
475.03	16.592
475.23	16.838
475.43	15.193
475.64	13.727
475.84	14.271
476.04	12.786
476.24	13.830
476.44	13.741
476.65	13.756
476.85	13.268
477.05	13.122
477.25	12.149
477.46	11.958
477.66	12.783
477.86	13.394
478.06	13.111
478.26	13.128
478.47	13.264
478.67	12.841
478.87	12.351
479.07	13.689
479.27	13.385
479.48	14.340
479.68	13.358
479.88	12.405
480.08	11.810
480.28	13.110
480.48	13.042
480.69	12.260
480.89	12.274
481.09	12.669
481.29	12.349
481.49	12.981
481.70	12.758
481.90	13.570
482.10	13.874
482.30	14.109
482.50	13.505
482.70	13.325
482.91	13.327
483.11	13.488
483.31	13.559
483.51	13.392
483.71	13.061
483.91	13.129
484.12	12.897
484.32	12.984
484.52	12.865
484.72	13.200
484.92	13.337
485.12	13.364
485.32	13.414
485.53	13.170
485.73	12.949
485.93	12.864
486.13	12.639
486.33	12.737
486.53	12.414
486.73	12.277
486.94	12.039
487.14	12.428
487.34	12.862
487.54	12.379
487.74	12.497
487.94	12.799
488.14	13.099
488.35	13.348
488.55	13.069
488.75	13.206
488.95	13.817
489.15	13.264
489.35	13.031
489.55	12.660
489.75	13.087
489.96	13.061
490.16	12.913
490.36	12.590
490.56	12.525
490.76	13.241
490.96	13.659
491.16	13.193
491.36	13.654
491.56	13.971
491.77	13.666
491.97	13.696
492.17	13.684
492.37	14.022
492.57	14.692
492.77	15.000
492.97	14.687
493.17	14.882
493.37	14.746
493.57	14.689
493.78	14.574
493.98	15.570
494.18	15.629
494.38	16.143
494.58	15.658
494.78	14.927
494.98	14.950
495.18	15.092
495.38	15.115
495.58	16.217
495.78	16.273
495.98	15.474
496.19	15.174
496.39	15.022
496.59	15.531
496.79	15.772
496.99	15.772
497.19	15.903
497.39	15.924
497.59	14.504
497.79	13.845
497.99	14.129
498.19	14.189
498.39	13.659
498.59	13.114
498.79	13.029
498.99	12.899
499.19	12.818
499.40	11.890
499.60	12.122
499.80	13.139
500.00	13.865
500.20	14.048
500.40	14.088
500.60	13.989
500.80	15.027
501.00	14.529
501.20	14.004
501.40	15.269
501.60	15.541
501.80	15.795
502.00	16.820
502.20	16.040
502.40	15.708
502.60	16.880
502.80	16.668
503.00	16.480
503.20	16.716
503.40	17.252
503.60	17.252
503.80	17.345
504.00	17.007
504.20	15.523
504.40	15.425
504.60	15.889
504.80	15.335
505.00	15.749
505.20	14.958
505.40	14.314
505.60	14.195
505.80	13.663
506.00	14.014
506.20	13.853
506.40	14.332
506.60	15.033
506.80	14.830
507.00	14.870
507.20	14.822
507.40	14.488
507.60	14.536
507.80	14.445
508.00	14.333
508.20	14.202
508.40	14.317
508.60	14.402
508.80	13.422
509.00	13.629
509.20	12.994
509.40	13.200
509.60	14.185
509.80	14.564
510.00	15.077
510.20	14.609
510.40	14.237
510.60	14.207
510.80	13.564
511.00	14.353
511.20	14.096
511.40	14.140
511.60	14.530
511.80	15.150
512.00	15.328
512.20	15.228
512.40	15.965
512.60	16.695
512.80	16.723
513.00	17.335
513.20	16.402
513.40	16.385
513.60	16.397
513.80	15.595
513.99	15.141
514.19	15.775
514.39	15.863
514.59	14.969
514.79	15.189
514.99	15.732
515.19	15.949
515.39	16.355
515.59	16.669
515.79	17.286
515.99	17.806
516.19	16.937
516.39	15.259
516.59	15.495
516.79	15.225
516.98	14.464
517.18	14.300
517.38	13.828
517.58	14.373
517.78	14.331
517.98	13.714
518.18	13.505
518.38	13.887
518.58	14.925
518.78	14.606
518.98	15.445
519.18	15.820
519.37	15.245
519.57	15.426
519.77	15.448
519.97	14.952
520.17	15.322
520.37	15.628
520.57	15.742
520.77	15.287
520.97	15.426
521.17	15.298
521.36	15.328
521.56	16.284
521.76	16.744
521.96	16.338
522.16	16.931
522.36	17.026
522.56	17.148
522.76	17.371
522.96	17.131
523.15	17.129
523.35	17.640
523.55	18.440
523.75	17.787
523.95	17.341
524.15	17.032
524.35	16.494
524.55	17.040
524.74	17.096
524.94	17.049
525.14	16.686
525.34	17.192
525.54	16.479
525.74	15.372
525.94	15.942
526.13	15.636
526.33	16.718
526.53	17.217
526.73	16.675
526.93	16.394
527.13	16.289
527.33	16.070
527.52	15.650
527.72	16.142
527.92	16.467
528.12	16.055
528.32	16.169
528.52	15.644
528.71	15.524
528.91	15.646
529.11	15.751
529.31	15.717
529.51	16.232
529.71	16.368
529.90	16.082
530.10	16.106
530.30	16.082
530.50	16.588
530.70	17.082
530.90	17.173
531.09	17.120
531.29	16.824
531.49	17.154
531.69	16.969
531.89	17.071
532.09	16.685
532.28	16.687
532.48	16.946
532.68	16.002
532.88	15.385
533.08	15.585
533.27	15.850
533.47	15.883
533.67	15.654
533.87	15.866
534.07	15.904
534.26	16.305
534.46	16.472
534.66	16.775
534.86	17.111
535.06	17.534
535.25	17.326
535.45	17.270
535.65	17.499
535.85	17.434
536.04	17.720
536.24	17.865
536.44	18.134
536.64	17.734
536.84	16.844
537.03	17.175
537.23	16.589
537.43	17.017
537.63	16.878
537.82	16.619
538.02	17.050
538.22	16.619
538.42	16.022
538.62	16.307
538.81	16.276
539.01	16.997
539.21	17.312
539.41	18.160
539.60	18.223
539.80	18.306
540.00	18.649
540.20	18.228
540.39	18.207
540.59	18.038
540.79	17.047
540.99	16.888
541.18	16.569
541.38	16.328
541.58	15.799
541.78	15.658
541.97	15.781
542.17	15.838
542.37	15.665
542.57	15.610
542.76	15.699
542.96	16.120
543.16	16.460
543.36	16.584
543.55	16.577
543.75	16.755
543.95	16.642
544.14	16.834
544.34	16.864
544.54	17.914
544.74	18.288
544.93	18.468
545.13	18.648
545.33	18.676
545.52	18.738
545.72	19.555
545.92	19.615
546.12	19.422
546.31	18.492
546.51	18.271
546.71	18.145
546.90	17.836
547.10	17.879
547.30	17.940
547.49	17.975
547.69	18.262
547.89	17.190
548.09	17.948
548.28	17.921
548.48	18.407
548.68	19.017
548.87	18.025
549.07	17.659
549.27	17.748
549.46	17.604
549.66	17.524
549.86	17.369
550.05	18.449
550.25	18.462
550.45	19.728
550.64	20.327
550.84	20.269
551.04	20.383
551.24	21.466
551.43	20.892
551.63	20.232
551.83	19.740
552.02	20.165
552.22	19.780
552.41	19.272
552.61	18.825
552.81	19.623
553.00	19.470
553.20	19.389
553.40	18.606
553.59	18.740
553.79	19.417
553.99	19.998
554.18	19.618
554.38	19.827
554.58	19.689
554.77	20.233
554.97	19.193
555.17	18.920
555.36	19.447
555.56	20.217
555.76	20.679
555.95	20.076
556.15	20.246
556.34	20.424
556.54	19.663
556.74	19.721
556.93	18.799
557.13	18.782
557.33	18.834
557.52	18.933
557.72	18.650
557.91	18.616
558.11	18.702
558.31	18.748
558.50	18.893
558.70	20.431
558.90	20.732
559.09	21.232
559.29	22.571
559.48	23.411
559.68	23.165
559.88	23.387
560.07	23.887
560.27	24.858
560.46	24.309
560.66	25.065
560.86	25.492
561.05	24.990
561.25	25.010
561.44	23.588
561.64	22.853
561.84	22.578
562.03	22.628
562.23	22.349
562.42	23.088
562.62	22.779
562.81	22.789
563.01	21.693
563.21	22.356
563.40	22.461
563.60	22.420
563.79	22.756
563.99	22.931
564.18	23.008
564.38	22.596
564.58	22.031
564.77	22.231
564.97	21.861
565.16	21.803
565.36	21.646
565.55	21.732
565.75	21.947
565.95	21.733
566.14	22.431
566.34	22.328
566.53	22.512
566.73	21.858
566.92	22.704
567.12	21.833
567.31	21.648
567.51	21.788
567.71	21.579
567.90	21.470
568.10	21.446
568.29	21.286
568.49	20.435
568.68	20.546
568.88	21.445
569.07	20.913
569.27	21.917
569.46	22.860
569.66	23.782
569.85	23.100
570.05	23.524
570.24	23.902
570.44	23.085
570.64	22.980
570.83	22.384
571.03	21.550
571.22	21.167
571.42	20.777
571.61	19.336
571.81	17.857
572.00	18.186
572.20	17.552
572.39	17.137
572.59	18.190
572.78	18.918
572.98	19.231
573.17	20.002
573.37	20.234
573.56	21.448
573.76	21.786
573.95	22.265
574.15	22.127
574.34	22.616
574.54	22.594
574.73	21.921
574.93	21.406
575.12	20.763
575.32	20.023
575.51	20.390
575.71	18.652
575.90	18.770
576.10	18.738
576.29	19.049
576.49	18.825
576.68	18.536
576.87	18.789
577.07	19.484
577.26	19.936
577.46	19.518
577.65	19.192
577.85	18.754
578.04	18.911
578.24	19.030
578.43	19.446
578.63	19.904
578.82	20.037
579.02	20.115
579.21	20.238
579.41	20.881
579.60	20.788
579.79	20.506
579.99	21.205
580.18	21.730
580.38	21.109
580.57	19.854
580.77	19.185
580.96	19.883
581.16	19.284
581.35	19.296
581.54	19.960
581.74	20.284
581.93	21.122
582.13	22.474
582.32	21.944
582.52	22.856
582.71	23.364
582.90	25.064
583.10	26.274
583.29	25.563
583.49	25.201
583.68	23.233
583.88	24.360
584.07	23.967
584.26	23.404
584.46	22.117
584.65	21.355
584.85	21.620
585.04	22.097
585.23	20.114
585.43	21.865
585.62	21.809
585.82	22.841
586.01	21.539
586.20	20.509
586.40	21.823
586.59	22.901
586.79	22.967
586.98	24.023
587.17	21.707
587.37	21.231
587.56	20.345
587.76	20.535
587.95	20.157
588.14	19.952
588.34	19.905
588.53	18.652
588.73	19.359
588.92	19.620
589.11	19.053
589.31	19.240
589.50	20.344
589.69	21.340
589.89	21.288
590.08	22.759
590.28	23.495
590.47	23.847
590.66	23.993
590.86	23.522
591.05	23.095
591.24	23.481
591.44	22.855
591.63	23.411
591.82	21.766
592.02	21.338
592.21	20.456
592.41	20.676
592.60	21.826
592.79	20.944
592.99	19.953
593.18	19.961
593.37	18.541
593.57	19.827
593.76	18.291
593.95	19.598
594.15	20.248
594.34	20.647
594.53	20.389
594.73	20.028
594.92	19.616
595.11	20.370
595.31	20.171
595.50	20.617
595.69	20.632
595.89	21.138
596.08	20.611
596.27	20.503
596.47	19.812
596.66	19.853
596.85	19.145
597.05	19.309
597.24	19.401
597.43	19.424
597.62	19.675
597.82	19.287
598.01	20.167
598.20	19.819
598.40	19.987
598.59	20.148
598.78	20.278
598.98	20.738
599.17	21.001
599.36	20.393
599.55	20.704
599.75	20.743
599.94	21.759
600.13	21.409
600.33	21.322
600.52	20.628
600.71	19.978
600.91	20.333
601.10	20.824
601.29	21.580
601.48	22.652
601.68	22.185
601.87	21.087
602.06	19.844
602.25	19.589
602.45	19.933
602.64	21.279
602.83	21.356
603.03	22.080
603.22	21.930
603.41	21.013
603.60	21.242
603.80	22.445
603.99	22.382
604.18	23.159
604.37	23.304
604.57	23.531
604.76	22.104
604.95	21.899
605.14	20.589
605.34	20.219
605.53	20.568
605.72	20.583
605.91	20.410
606.11	20.886
606.30	20.565
606.49	21.817
606.68	21.435
606.88	22.605
607.07	23.375
607.26	23.445
607.45	23.602
607.65	24.957
607.84	25.046
608.03	25.208
608.22	24.415
608.41	24.903
608.61	22.896
608.80	21.967
608.99	20.902
609.18	20.457
609.38	20.899
609.57	21.040
609.76	19.922
609.95	19.525
610.14	19.205
610.34	20.857
610.53	20.935
610.72	20.790
610.91	22.676
611.10	23.309
611.30	24.959
611.49	26.187
611.68	27.975
611.87	28.425
612.06	29.377
612.26	29.281
612.45	28.868
612.64	29.418
612.83	29.325
613.02	30.031
613.22	30.001
613.41	29.227
613.60	27.685
613.79	26.146
613.98	25.315
614.17	23.403
614.37	23.902
614.56	24.152
614.75	23.581
614.94	24.263
615.13	22.573
615.32	23.151
615.52	22.877
615.71	23.454
615.90	22.852
616.09	22.929
616.28	24.033
616.47	23.535
616.67	23.872
616.86	22.271
617.05	22.093
617.24	20.735
617.43	21.102
617.62	20.951
617.82	19.465
618.01	19.167
618.20	19.941
618.39	20.451
618.58	20.970
618.77	19.789
618.96	18.941
619.16	18.040
619.35	19.624
619.54	17.965
619.73	16.883
619.92	19.112
620.11	20.486
620.30	20.554
620.49	19.276
620.69	18.879
620.88	18.427
621.07	18.465
621.26	19.686
621.45	19.710
621.64	19.270
621.83	19.977
622.02	18.600
622.22	17.529
622.41	16.610
622.60	17.033
622.79	16.746
622.98	19.123
623.17	21.272
623.36	21.399
623.55	19.723
623.74	21.484
623.93	19.642
624.13	19.372
624.32	18.375
624.51	19.829
624.70	19.243
624.89	19.313
625.08	17.103
625.27	16.520
625.46	13.923
625.65	15.299
625.84	15.916
626.03	17.871
626.23	18.668
626.42	19.806
626.61	18.987
626.80	19.516
626.99	18.400
627.18	19.441
627.37	19.717
627.56	21.728
627.75	21.016
627.94	19.944
628.13	19.052
628.32	19.268
628.51	18.381
628.70	18.362
628.89	17.733
629.09	18.743
629.28	18.077
629.47	18.492
629.66	18.562
629.85	18.617
630.04	18.191
630.23	20.123
630.42	20.034
630.61	20.132
630.80	20.694
630.99	21.703
631.18	20.809
631.37	22.301
631.56	21.340
631.75	21.627
631.94	23.181
632.13	24.509
632.32	21.695
632.51	21.800
632.70	21.458
632.89	23.106
633.08	23.390
633.27	25.197
633.46	24.584
633.65	26.032
633.84	25.275
634.03	26.545
634.22	26.342
634.41	27.039
634.60	26.506
634.79	27.427
634.99	27.289
635.18	27.238
635.37	25.494
635.56	23.438
635.75	21.845
635.94	20.746
636.13	17.800
636.32	15.920
636.51	17.311
636.69	16.580
636.88	16.777
637.07	14.572
637.26	14.076
637.45	14.728
637.64	17.326
637.83	18.365
638.02	18.356
638.21	18.678
638.40	20.374
638.59	18.823
638.78	20.025
638.97	19.960
639.16	20.447
639.35	20.149
639.54	21.256
639.73	19.778
639.92	19.914
640.11	20.140
640.30	20.601
640.49	21.260
640.68	23.436
640.87	23.140
641.06	22.797
641.25	23.129
641.44	21.498
641.63	20.062
641.82	21.194
642.01	21.007
642.20	20.389
642.39	21.919
642.58	21.724
642.76	21.064
642.95	19.805
643.14	20.714
643.33	20.345
643.52	20.805
643.71	19.971
643.90	19.477
644.09	19.961
644.28	22.723
644.47	21.502
644.66	23.283
644.85	22.844
645.04	23.267
645.23	21.142
645.41	21.678
645.60	24.173
645.79	25.827
645.98	26.269
646.17	24.862
646.36	23.020
646.55	22.586
646.74	19.597
646.93	18.383
647.12	18.688
647.31	21.831
647.49	19.607
647.68	19.155
647.87	20.082
648.06	20.109
648.25	18.857
648.44	20.514
648.63	21.786
648.82	21.859
649.01	23.504
649.20	23.297
649.38	20.580
649.57	21.765
649.76	20.352
649.95	19.561
650.14	19.644
650.33	19.852
650.52	18.474
650.71	18.179
650.89	18.086
651.08	16.739
651.27	18.509
651.46	18.279
651.65	17.650
651.84	18.918
652.03	19.082
652.22	19.318
652.40	19.720
652.59	22.154
652.78	22.108
652.97	22.322
653.16	23.364
653.35	20.929
653.54	22.195
653.72	21.747
653.91	21.344
654.10	20.590
654.29	21.312
654.48	23.248
654.67	22.632
654.85	21.059
655.04	21.043
655.23	19.722
655.42	21.649
655.61	21.078
655.80	20.220
655.98	20.626
656.17	21.851
656.36	21.823
656.55	20.619
656.74	19.319
656.93	18.624
657.11	18.155
657.30	18.709
657.49	17.410
657.68	17.832
657.87	19.455
658.06	17.566
658.24	17.252
658.43	16.434
658.62	16.156
658.81	14.646
659.00	14.994
659.18	15.846
659.37	15.613
659.56	15.238
659.75	16.050
659.94	16.862
660.12	17.102
660.31	17.510
660.50	15.701
660.69	17.072
660.88	17.495
661.06	19.021
661.25	19.681
661.44	21.376
661.63	23.262
661.81	22.542
662.00	21.894
662.19	23.356
662.38	22.452
662.57	25.013
662.75	24.233
662.94	24.101
663.13	22.205
663.32	21.950
663.50	20.428
663.69	20.943
663.88	22.503
664.07	22.451
664.25	21.099
664.44	19.283
664.63	16.355
664.82	16.482
665.00	18.658
665.19	20.073
665.38	19.655
665.57	20.008
665.75	18.676
665.94	17.207
666.13	17.539
666.32	18.821
666.50	19.861
666.69	22.589
666.88	21.843
667.07	21.156
667.25	21.604
667.44	22.522
667.63	22.084
667.82	20.254
668.00	19.875
668.19	20.434
668.38	18.333
668.56	17.636
668.75	16.436
668.94	15.500
669.13	16.129
669.31	16.591
669.50	15.672
669.69	17.551
669.88	18.447
670.06	18.047
670.25	17.019
670.44	17.832
670.62	20.706
670.81	21.837
671.00	23.558
671.18	24.115
671.37	25.201
671.56	24.572
671.75	23.066
671.93	24.281
672.12	23.192
672.31	24.758
672.49	26.092
672.68	24.268
672.87	23.340
673.05	21.998
673.24	20.226
673.43	16.391
673.61	16.887
673.80	15.205
673.99	13.395
674.17	17.949
674.36	15.937
674.55	15.801
674.73	16.388
674.92	16.670
675.11	17.519
675.29	18.794
675.48	19.756
675.67	18.505
675.85	19.995
676.04	23.345
676.23	20.600
676.41	21.206
676.60	21.375
676.79	21.337
676.97	21.006
677.16	19.703
677.35	20.191
677.53	20.185
677.72	21.695
677.91	21.686
678.09	20.974
678.28	21.023
678.47	20.637
678.65	18.588
678.84	17.607
679.02	16.469
679.21	17.180
679.40	14.283
679.58	16.753
679.77	18.167
679.96	18.148
680.14	16.433
680.33	17.515
680.51	17.568
680.70	19.183
680.89	19.816
681.07	22.323
681.26	23.340
681.44	23.484
681.63	22.621
681.82	22.687
682.00	22.385
682.19	22.978
682.38	21.126
682.56	21.211
682.75	20.319
682.93	20.436
683.12	19.689
683.31	18.063
683.49	19.645
683.68	17.480
683.86	16.013
684.05	18.920
684.23	18.719
684.42	20.282
684.61	20.492
684.79	20.395
684.98	19.738
685.16	16.936
685.35	17.900
685.54	15.696
685.72	16.351
685.91	16.027
686.09	12.572
686.28	12.068
686.46	11.956
686.65	14.333
686.83	13.846
687.02	14.620
687.21	17.203
687.39	19.050
687.58	19.816
687.76	21.892
687.95	21.030
688.13	21.056
688.32	21.631
688.50	20.498
688.69	18.984
688.88	20.925
689.06	19.290
689.25	19.206
689.43	16.061
689.62	17.586
689.80	16.201
689.99	16.806
690.17	17.993
690.36	19.435
690.54	19.182
690.73	20.301
690.91	19.595
691.10	21.491
691.29	21.030
691.47	23.436
691.66	25.302
691.84	26.346
692.03	25.617
692.21	23.705
692.40	23.911
692.58	26.687
692.77	25.605
692.95	23.816
693.14	25.630
693.32	25.079
693.51	23.675
693.69	20.682
693.88	19.370
694.06	20.642
694.25	21.615
694.43	21.762
694.62	19.063
694.80	18.090
694.99	21.441
695.17	20.166
695.36	21.411
695.54	21.333
695.73	23.051
695.91	23.987
696.10	24.988
696.28	23.855
696.47	20.443
696.65	21.387
696.84	23.331
697.02	22.423
697.20	21.986
697.39	21.881
697.57	22.007
697.76	20.957
697.94	18.257
698.13	18.375
698.31	21.346
698.50	22.828
698.68	21.811
698.87	20.932
699.05	20.422
699.24	20.283
699.42	21.629
699.60	20.811
699.79	20.168
699.97	21.706
700.16	22.088
700.34	21.157
700.53	21.040
700.71	21.786
700.90	22.841
701.08	22.865
701.26	22.765
701.45	20.090
701.63	22.142
701.82	22.623
702.00	22.019
702.19	21.347
702.37	23.980
702.55	23.172
702.74	23.221
702.92	22.693
703.11	25.094
703.29	23.732
703.48	25.468
703.66	26.745
703.84	29.172
704.03	30.672
704.21	30.172
704.40	22.413
704.58	23.418
704.76	22.691
704.95	21.988
705.13	19.416
705.32	19.874
705.50	18.710
705.68	13.175
705.87	12.170
706.05	9.793
706.24	8.296
706.42	12.190
706.60	11.033
706.79	14.647
706.97	17.089
707.15	16.562
707.34	19.358
707.52	20.814
707.71	25.030
707.89	25.432
708.07	27.310
708.26	31.537
708.44	31.415
708.62	33.002
708.81	30.299
708.99	25.634
709.18	25.882
709.36	24.057
709.54	25.241
709.73	25.659
709.91	26.253
710.09	26.518
710.28	22.262
710.46	20.713
710.64	19.694
710.83	19.040
711.01	18.791
711.19	20.110
711.38	19.213
711.56	16.407
711.74	15.655
711.93	17.759
712.11	15.768
712.30	16.038
712.48	15.814
712.66	16.744
712.85	16.249
713.03	19.319
713.21	17.834
713.39	17.465
713.58	17.376
713.76	16.805
713.94	12.728
714.13	15.653
714.31	19.499
714.49	18.918
714.68	18.063
714.86	22.407
715.04	22.499
715.23	24.781
715.41	25.518
715.59	28.473
715.78	26.284
715.96	29.368
716.14	26.979
716.32	25.275
716.51	26.182
716.69	28.548
716.87	21.026
717.06	18.039
717.24	17.815
717.42	17.999
717.61	13.671
717.79	14.313
717.97	13.219
718.15	13.194
718.34	14.493
718.52	17.161
718.70	16.713
718.88	19.560
719.07	21.813
719.25	19.248
719.43	20.592
719.62	23.154
719.80	25.746
719.98	24.054
720.16	24.852
720.35	26.751
720.53	22.687
720.71	19.717
720.89	22.045
721.08	25.596
721.26	27.624
721.44	22.814
721.62	22.194
721.81	17.409
721.99	18.920
722.17	16.988
722.35	13.159
722.54	18.105
722.72	21.307
722.90	22.165
723.08	16.914
723.27	16.426
723.45	20.687
723.63	24.809
723.81	31.304
724.00	31.226
724.18	31.738
724.36	32.677
724.54	25.958
724.72	24.624
724.91	23.289
725.09	25.368
725.27	25.314
725.45	23.250
725.64	17.007
725.82	13.721
726.00	15.901
726.18	18.350
726.36	15.529
726.55	21.858
726.73	21.767
726.91	24.967
727.09	23.482
727.27	26.487
727.46	28.236
727.64	32.041
727.82	33.346
728.00	31.284
728.18	34.851
728.37	37.169
728.55	35.866
728.73	35.066
728.91	34.223
729.09	37.020
729.27	31.961
729.46	32.119
729.64	30.852
729.82	29.271
730.00	34.689
730.18	31.493
730.36	30.076
730.55	30.000
730.73	29.698
730.91	27.507
731.09	22.601
731.27	25.894
731.45	26.786
731.64	26.608
731.82	28.920
732.00	20.692
732.18	19.266
732.36	17.196
732.54	17.240
732.73	20.614
732.91	22.986
733.09	23.749
733.27	24.453
733.45	23.374
733.63	25.249
733.81	28.503
734.00	32.279
734.18	33.392
734.36	31.569
734.54	29.757
734.72	29.951
734.90	27.963
735.08	28.949
735.26	28.500
735.45	30.894
735.63	25.738
735.81	12.906
735.99	10.671
736.17	11.828
736.35	19.973
736.53	25.496
736.71	19.683
736.89	17.929
737.08	19.758
737.26	18.935
737.44	18.957
737.62	23.889
737.80	26.186
737.98	30.679
738.16	30.089
738.34	25.847
738.52	25.720
738.70	26.889
738.89	27.711
739.07	27.273
739.25	29.269
739.43	29.609
739.61	19.737
739.79	22.601
739.97	21.239
740.15	23.107
740.33	24.869
740.51	22.152
740.69	25.883
740.87	28.719
741.06	28.858
741.24	31.487
741.42	30.592
741.60	37.744
741.78	37.864
741.96	36.920
742.14	32.223
742.32	29.499
742.50	31.652
742.68	28.975
742.86	24.973
743.04	21.995
743.22	22.794
743.40	17.622
743.58	17.322
743.76	18.819
743.94	16.865
744.12	20.488
744.30	24.582
744.49	27.122
744.67	32.866
744.85	28.511
745.03	33.534
745.21	33.622
745.39	37.125
745.57	38.504
745.75	38.283
745.93	39.116
746.11	43.285
746.29	42.674
746.47	41.381
746.65	36.607
746.83	43.788
747.01	42.798
747.19	36.022
747.37	35.238
747.55	33.109
747.73	28.931
747.91	34.365
748.09	36.581
748.27	32.897
748.45	35.950
748.63	29.888
748.81	32.141
748.99	30.547
749.17	30.258
749.35	28.415
749.53	26.784
749.71	27.072
749.89	25.027
750.07	18.242
750.25	16.619
750.43	16.807
750.61	22.618
750.79	22.778
750.97	24.572
751.15	27.416
751.33	26.677
751.51	26.838
751.69	33.367
751.87	28.667
752.05	25.121
752.23	30.302
752.40	28.419
752.58	23.933
752.76	24.099
752.94	20.021
753.12	21.805
753.30	27.615
753.48	31.910
753.66	32.255
753.84	36.762
754.02	43.458
754.20	45.753
754.38	41.895
754.56	46.510
754.74	43.845
754.92	44.845
755.10	40.430
755.28	36.968
755.46	32.913
755.64	29.567
755.81	29.754
755.99	24.965
756.17	18.362
756.35	19.567
756.53	17.134
756.71	18.014
756.89	19.592
757.07	15.346
757.25	15.739
757.43	16.069
757.61	15.502
757.79	11.930
757.96	16.540
758.14	23.545
758.32	22.904
758.50	24.083
758.68	25.248
758.86	25.953
759.04	26.203
759.22	26.549
759.40	29.930
759.58	30.000
759.75	31.901
759.93	36.691
760.11	39.109
760.29	42.435
760.47	43.879
760.65	42.795
760.83	40.418
761.01	47.373
761.19	47.890
761.36	41.057
761.54	41.634
761.72	41.471
761.90	34.920
762.08	29.014
762.26	27.171
762.44	27.017
762.62	23.619
762.79	28.281
762.97	28.369
763.15	25.541
763.33	30.176
763.51	30.839
763.69	29.165
763.87	29.602
764.04	31.672
764.22	29.405
764.40	28.622
764.58	30.033
764.76	27.965
764.94	24.404
765.11	25.686
765.29	27.676
765.47	33.517
765.65	33.526
765.83	35.857
766.01	36.056
766.18	39.657
766.36	41.015
766.54	40.114
766.72	39.302
766.90	39.332
767.08	43.386
767.25	42.627
767.43	38.154
767.61	38.445
767.79	42.597
767.97	38.241
768.14	37.676
768.32	41.574
768.50	40.736
768.68	40.635
768.86	46.308
769.03	39.493
769.21	41.323
769.39	34.067
769.57	29.935
769.75	19.195
769.92	24.971
770.10	23.462
770.28	13.769
770.46	13.106
770.64	18.295
770.81	26.430
770.99	30.107
771.17	24.190
771.35	31.419
771.53	40.528
771.70	43.129
771.88	35.021
772.06	36.414
772.24	40.233
772.41	41.984
772.59	39.237
772.77	28.069
772.95	23.806
773.12	32.675
773.30	25.178
773.48	24.790
773.66	24.523
773.84	35.041
774.01	31.020
774.19	33.147
774.37	36.682
774.55	33.270
774.72	23.882
774.90	31.109
775.08	27.861
775.25	37.093
775.43	42.497
775.61	47.652
775.79	39.130
775.96	41.205
776.14	41.938
776.32	41.446
776.50	37.894
776.67	54.649
776.85	46.943
777.03	38.811
777.21	36.178
777.38	25.714
777.56	23.016
777.74	14.662
777.91	16.156
778.09	16.759
778.27	24.205
778.45	19.203
778.62	16.636
778.80	26.837
778.98	30.497
779.15	29.952
779.33	27.953
779.51	29.923
779.68	33.126
779.86	32.417
780.04	30.311
780.22	22.401
780.39	39.138
780.57	35.822
780.75	28.177
780.92	26.195
781.10	24.979
781.28	21.809
781.45	31.887
781.63	38.395
781.81	32.702
781.98	32.319
782.16	35.633
782.34	25.349
782.51	30.288
782.69	33.903
782.87	36.356
783.04	33.181
783.22	36.258
783.40	27.411
783.57	15.612
783.75	19.166
783.93	29.020
784.10	34.057
784.28	33.795
784.46	32.605
784.63	41.967
784.81	46.188
784.99	51.359
785.16	58.635
785.34	55.726
785.52	62.045
785.69	66.837
785.87	61.592
786.04	60.210
786.22	65.722
786.40	60.052
786.57	54.279
786.75	50.372
786.93	49.582
787.10	50.367
787.28	59.446
787.45	56.720
787.63	55.316
787.81	57.048
787.98	57.314
788.16	52.036
788.34	53.865
788.51	50.646
788.69	52.961
788.86	50.755
789.04	41.265
789.22	29.377
789.39	25.518
789.57	28.056
789.74	28.814
789.92	29.600
790.10	34.717
790.27	29.237
790.45	35.581
790.62	32.809
790.80	32.084
790.97	30.561
791.15	32.991
791.33	35.005
791.50	25.252
791.68	24.631
791.85	23.453
792.03	21.229
792.21	34.716
792.38	18.061
792.56	12.500
792.73	21.729
792.91	32.084
793.08	30.178
793.26	33.680
793.44	34.194
793.61	23.327
793.79	11.502
793.96	9.218
794.14	-10.352
794.31	-2.459
794.49	3.633
794.66	-4.082
794.84	11.111
795.01	21.519
795.19	31.481
795.37	34.088
795.54	27.972
795.72	43.377
795.89	44.487
796.07	46.085
796.24	49.875
796.42	56.265
796.59	49.231
796.77	51.715
796.94	56.538
797.12	46.602
797.29	58.863
797.47	75.873
797.64	52.528
797.82	67.444
797.99	66.701
798.17	62.987
798.35	59.438
798.52	72.608
798.70	62.136
798.87	47.427
799.05	55.143
799.22	55.369
799.40	51.311
799.57	72.529
799.75	58.333
799.92	62.343
800.10	77.791
800.27	87.638
800.45	80.889
800.62	93.198
800.79	88.108
800.97	79.819
801.14	65.635
801.32	65.556
801.49	47.847
801.67	50.535
801.84	60.759
802.02	38.364
802.19	32.132
802.37	48.286
802.54	49.362
802.72	52.589
802.89	36.326
803.07	51.701
803.24	59.414
803.42	79.510
803.59	68.381
803.76	56.842
803.94	58.234
804.11	59.558
804.29	52.213
804.46	48.521
804.64	47.528
804.81	76.440
804.99	79.501
805.16	79.697
805.34	58.322
805.51	64.444
805.68	67.738
805.86	69.371
806.03	61.208
806.21	68.590
806.38	62.287
806.56	75.487
806.73	55.539
806.90	42.760
807.08	46.697
807.25	55.354
807.43	65.411
807.60	64.645
807.78	66.924
807.95	66.298
808.12	66.010
808.30	57.623
808.47	52.844
808.65	65.851
808.82	59.169
808.99	38.184
809.17	31.507
809.34	41.096
809.52	41.401
809.69	54.329
809.86	52.860
810.04	54.464
810.21	85.171
810.39	88.909
810.56	85.669
810.73	93.203
810.91	98.207
811.08	107.486
811.25	102.684
811.43	86.380
811.60	72.497
811.78	80.737
811.95	80.361
812.12	65.656
812.30	57.406
812.47	42.986
812.64	43.131
812.82	56.334
812.99	52.193
813.17	41.863
813.34	40.706
813.51	41.363
813.69	41.385
813.86	44.764
814.03	47.411
814.21	48.352
814.38	62.634
814.55	59.409
814.73	51.442
814.90	53.373
815.07	65.680
815.25	72.093
815.42	81.901
815.59	68.000
815.77	51.995
815.94	60.896
816.11	66.620
816.29	59.067
816.46	50.546
816.63	45.082
816.81	58.501
816.98	58.140
817.15	54.167
817.33	45.187
817.50	59.345
817.67	65.775
817.85	54.771
818.02	58.333
818.19	53.571
818.37	59.618
818.54	63.843
818.71	65.426
818.88	66.457
819.06	88.426
819.23	73.560
819.40	64.802
819.58	59.756
819.75	68.576
819.92	73.663
820.09	92.588
820.27	86.838
820.44	72.000
820.61	58.448
820.79	57.099
820.96	47.892
821.13	44.727
821.30	47.096
821.48	47.629
821.65	43.934
821.82	36.575
822.00	28.564
822.17	33.350
822.34	32.182
822.51	31.151
822.69	24.022
822.86	23.157
823.03	25.660
823.20	24.815
823.38	24.868
823.55	23.875
823.72	22.331
823.89	23.927
824.07	24.552
824.24	22.850
824.41	21.921
824.58	27.713
824.76	25.642
824.93	28.073
825.10	25.712
825.27	25.147
825.45	24.230
825.62	26.743
825.79	24.924
825.96	19.760
826.13	23.864
826.31	25.270
826.48	20.785
826.65	26.119
826.82	23.316
827.00	27.014
827.17	26.677
827.34	28.055
827.51	26.690
827.68	27.973
827.86	28.282
828.03	27.339
828.20	29.835
828.37	26.723
828.54	20.626
828.72	22.543
828.89	16.462
829.06	19.947
829.23	20.145
829.40	22.349
829.58	21.852
829.75	24.632
829.92	22.414
830.09	23.729
830.26	31.443
830.44	39.475
830.61	45.299
830.78	53.904
830.95	63.234
831.12	57.699
831.29	61.691
831.47	68.597
831.64	81.616
831.81	86.229
831.98	78.026
832.15	83.956
832.32	97.948
832.50	92.879
832.67	94.638
832.84	89.237
833.01	93.271
833.18	89.549
833.35	83.115
833.53	72.816
833.70	73.460
833.87	80.521
834.04	75.812
834.21	60.579
834.38	37.561
834.55	27.402
834.72	15.992
834.90	15.283
835.07	1.245
835.24	7.960
835.41	9.784
835.58	10.425
835.75	7.268
835.92	9.030
836.10	15.581
836.27	19.147
836.44	25.832
836.61	26.245
836.78	24.821
836.95	32.666
837.12	30.665
837.29	30.134
837.46	36.540
837.64	42.818
837.81	44.816
837.98	38.741
838.15	41.229
838.32	33.980
838.49	29.383
838.66	28.811
838.83	27.816
839.00	22.158
839.17	31.579
839.34	31.559
839.52	36.037
839.69	38.186
839.86	37.583
840.03	27.834
840.20	19.677
840.37	33.006
840.54	44.915
840.71	54.720
840.88	59.903
841.05	46.061
841.22	42.542
841.39	20.609
841.56	-1.831
841.74	10.067
841.91	42.281
842.08	45.113
842.25	43.359
842.42	25.061
842.59	24.018
842.76	35.991
842.93	42.887
843.10	53.649
843.27	68.259
843.44	69.527
843.61	70.255
843.78	74.912
843.95	92.600
844.12	103.052
844.29	103.952
844.46	119.960
844.63	116.942
844.80	115.948
844.97	112.500
845.14	66.527
845.31	84.667
845.48	91.964
845.65	83.085
845.82	117.197
845.99	108.127
846.16	140.244
846.33	228.125
846.50	345.714
846.67	-4280.000
846.85	1211.765
847.02	403.419
847.19	259.135
847.36	496.226
847.53	1173.684
847.70	366.418
847.87	1413.636
848.03	267.961
848.20	131.100
848.37	137.097
848.54	137.917
848.71	73.333
848.88	194.175
849.05	132.824
849.22	170.707
849.39	143.333
849.56	78.409
849.73	1416.667
849.90	217.021
850.07	-218.571
850.24	-547.917
850.41	588.372
850.58	897.436
850.75	269.652
850.92	322.603
851.09	418.966
851.26	-2822.222
851.43	918.841
851.60	515.584
851.77	5761.538
851.94	804.396
852.11	959.322
852.28	-678.947
852.45	-801.370
852.62	-357.692
852.79	-265.089
852.96	-562.319
853.12	-395.000
853.29	-99.558
853.46	-14.848
853.63	-56.164
853.80	-71.429
853.97	-50.000
854.14	-28.114
854.31	-91.509
854.48	-323.810
854.65	-236.937
854.82	896.226
854.99	413.393
855.16	225.431
855.33	252.174
855.49	249.275
855.66	254.861
855.83	132.463
856.00	100.000
856.17	50.510
856.34	82.308
856.51	64.677
856.68	9.091
856.85	21.739
857.02	8.333
857.18	9.945
857.35	127.473
857.52	189.706
857.69	306.667
857.86	310.000
858.03	269.421
858.20	-483.673
858.37	-475.000
858.54	1412.000
858.70	369.421
858.87	855.556
859.04	-1009.302
859.21	1421.212
859.38	2435.294
859.55	-963.636
859.72	871.642
859.89	484.874
860.05	224.092
860.22	190.909
860.39	206.702
860.56	227.300
860.73	185.417
860.90	184.245
861.07	170.460
861.23	175.176
861.40	145.455
861.57	168.160
861.74	244.518
861.91	302.691
862.08	1419.355
862.24	40300.000
862.41	-327.723
862.58	-181.507
862.75	-546.939
862.92	-545.098
863.09	611.475
863.25	-4228.571
863.42	372.727
863.59	339.623
863.76	213.600
863.93	227.586
864.10	263.889
864.26	346.237
864.43	149.635
864.60	233.333
864.77	152.809
864.94	1096.429
865.10	223.664
865.27	254.651
865.44	163.804
865.61	266.857
865.78	205.325
865.94	166.016
866.11	144.128
866.28	352.000
866.45	292.500
866.62	349.405
866.78	188.095
866.95	365.789
867.12	300.431
867.29	235.540
867.46	203.691
867.62	164.706
867.79	179.063
867.96	157.798
868.13	136.364
868.29	126.923
868.46	122.727
868.63	95.620
868.80	91.988
868.97	81.250
869.13	78.287
869.30	67.726
869.47	101.826
869.64	53.988
869.80	106.107
869.97	60.714
870.14	78.767
870.31	185.065
870.47	-1650.000
870.64	12300.000
870.81	-1466.667
870.98	533.333
871.14	-3270.000
871.31	185.128
871.48	205.310
871.65	149.306
871.81	146.372
871.98	147.603
872.15	100.810
872.31	138.148
872.48	182.593
872.65	168.551
872.82	301.418
872.98	117.647
873.15	98.425
873.32	102.575
873.48	134.855
873.65	138.117
873.82	144.061
873.99	120.179
874.15	73.091
874.32	62.342
874.49	78.512
874.65	52.493
874.82	48.846
874.99	78.947
875.16	131.651
875.32	160.563
875.49	168.553
875.66	214.773
875.82	207.787
875.99	370.896
876.16	-41400.000
876.32	8880.000
876.49	-400.000
876.66	9233.333
876.82	-1295.652
876.99	-1134.091
877.16	-1340.000
877.32	2395.238
877.49	-973.684
877.66	487.879
877.82	206.383
877.99	191.633
878.16	208.451
878.32	161.765
878.49	145.536
878.66	114.854
878.82	105.950
878.99	96.539
879.16	98.319
879.32	78.947
879.49	90.000
879.66	82.670
879.82	52.770
879.99	29.767
880.16	115.556
880.32	101.709
880.49	184.416
880.65	-700.000
880.82	313.115
880.99	107.595
881.15	1175.000
881.32	144.444
881.49	122.707
881.65	210.714
881.82	125.157
881.98	64.128
882.15	46.098
882.32	54.407
882.48	59.149
882.65	49.766
882.82	54.660
882.98	62.355
883.15	67.176
883.31	63.611
883.48	51.590
883.65	55.169
883.81	62.325
883.98	54.443
884.14	48.000
884.31	40.150
884.48	34.353
884.64	38.845
884.81	32.616
884.97	23.653
885.14	15.692
885.30	13.938
885.47	5.382
885.64	14.591
885.80	31.366
885.97	22.040
886.13	29.157
886.30	43.333
886.47	53.650
886.63	58.665
886.80	59.574
886.96	48.738
887.13	61.633
887.29	55.325
887.46	43.794
887.62	46.867
887.79	61.954
887.96	70.844
888.12	-5.000
888.29	-121.053
888.45	111.538
888.62	32.673
888.78	-268.182
>>>>>End Processed Spectral Data<<<<<
