SpectraSuite Data File
++++++++++++++++++++++++++++++++++++
Date: Mon Jan 12 10:55:24 EST 2009
User: Lex
Dark Spectrum Present: Yes
Reference Spectrum Present: Yes
Number of Sampled Component Spectra: 1
Spectrometers: USB4E03001
Integration Time (usec): 100000 (USB4E03001)
Spectra Averaged: 5 (USB4E03001)
Boxcar Smoothing: 5 (USB4E03001)
Correct for Electrical Dark: No (USB4E03001)
Strobe/Lamp Enabled: Yes (USB4E03001)
Correct for Detector Non-linearity: No (USB4E03001)
Correct for Stray Light: No (USB4E03001)
Number of Pixels in Processed Spectrum: 3648
>>>>>Begin Processed Spectral Data<<<<<
177.57	-283.333
177.79	-283.333
178.01	-283.333
178.23	1100.000
178.45	-13.559
178.66	303.947
178.88	223.881
179.10	163.569
179.32	115.512
179.54	75.000
179.76	65.394
179.98	69.146
180.20	63.030
180.42	98.413
180.64	213.043
180.86	523.077
181.08	195.726
181.30	222.513
181.52	297.810
181.74	748.000
181.96	-2094.737
182.18	-668.571
182.40	-595.890
182.62	-2394.444
182.84	-635.000
183.06	2706.667
183.28	471.642
183.50	-180.952
183.72	-177.143
183.94	-179.365
184.16	269.737
184.38	-236.765
184.60	-400.000
184.82	676.744
185.04	8250.000
185.26	640.385
185.48	-1300.000
185.69	-393.333
185.91	-698.387
186.13	774.603
186.35	703.279
186.57	-711.321
186.79	241.667
187.01	398.571
187.23	-302.174
187.45	-97.170
187.67	-130.435
187.89	-344.086
188.11	457.143
188.33	510.345
188.55	-261.404
188.77	-1211.111
188.99	205.376
189.21	192.000
189.42	113.659
189.64	224.194
189.86	177.895
190.08	0.758
190.30	-57.647
190.52	-1175.000
190.74	67.021
190.96	112.121
191.18	-364.286
191.40	-11.475
191.62	-19.463
191.84	-46.729
192.06	-28.618
192.27	-99.134
192.49	-153.947
192.71	-749.123
192.93	-266.667
193.15	-69.307
193.37	-84.865
193.59	-116.522
193.81	-181.111
194.03	-257.534
194.25	-70.435
194.47	2750.000
194.68	-131.343
194.90	-2.000
195.12	-20.301
195.34	465.789
195.56	373.611
195.78	546.552
196.00	332.000
196.22	155.897
196.44	123.129
196.66	118.750
196.87	110.638
197.09	89.683
197.31	111.304
197.53	-91.667
197.75	-566.667
197.97	-130.769
198.19	195.652
198.41	52.941
198.63	8.475
198.84	-173.810
199.06	-50.000
199.28	-11.640
199.50	-79.444
199.72	-139.264
199.94	-586.792
200.16	-73.881
200.38	-76.014
200.59	-178.571
200.81	-139.502
201.03	-239.500
201.25	-168.340
201.47	-818.056
201.69	942.254
201.91	414.368
202.13	284.774
202.34	399.476
202.56	256.187
202.78	213.105
203.00	243.529
203.22	186.139
203.44	187.633
203.66	197.173
203.87	216.766
204.09	329.310
204.31	3220.000
204.53	-868.966
204.75	342.857
204.97	327.160
205.19	1506.250
205.40	1690.000
205.62	920.833
205.84	341.935
206.06	-1440.000
206.28	246.763
206.50	535.385
206.71	231.892
206.93	171.556
207.15	263.953
207.37	340.517
207.59	258.974
207.81	200.426
208.02	177.083
208.24	149.869
208.46	141.499
208.68	159.517
208.90	133.000
209.12	182.095
209.33	244.978
209.55	161.890
209.77	168.802
209.99	150.714
210.21	179.439
210.43	192.830
210.64	253.763
210.86	208.922
211.08	517.500
211.30	830.612
211.52	506.944
211.74	408.163
211.95	688.679
212.17	326.744
212.39	183.333
212.61	108.397
212.83	96.392
213.04	161.017
213.26	176.623
213.48	190.400
213.70	141.139
213.92	112.698
214.13	65.877
214.35	92.308
214.57	111.864
214.79	-2209.091
215.01	-242.353
215.22	-1025.000
215.44	360.630
215.66	496.429
215.88	320.690
216.10	1092.105
216.31	-546.032
216.53	-258.594
216.75	-169.231
216.97	-133.632
217.19	-298.182
217.40	-1496.429
217.62	-400.000
217.84	-112.346
218.06	-123.684
218.27	-86.316
218.49	-146.729
218.71	-1652.941
218.93	-903.333
219.15	-2490.000
219.36	-471.667
219.58	-618.367
219.80	4214.286
220.02	176.613
220.23	149.794
220.45	118.565
220.67	98.030
220.89	159.627
221.11	315.000
221.32	3260.000
221.54	-85.345
221.76	1341.667
221.98	305.634
222.19	-238.889
222.41	-567.857
222.63	-156.180
222.85	-507.692
223.06	-1327.778
223.28	-1225.000
223.50	-289.691
223.72	-788.636
223.93	701.389
224.15	713.433
224.37	-1188.571
224.59	-3476.923
224.80	-1056.410
225.02	-606.897
225.24	-168.590
225.46	-46.970
225.67	-130.636
225.89	6150.000
226.11	552.055
226.33	447.692
226.54	803.846
226.76	340.187
226.98	1270.588
227.20	1224.242
227.41	326.623
227.63	427.612
227.85	267.658
228.06	175.303
228.28	175.689
228.50	161.905
228.72	168.108
228.93	153.297
229.15	128.615
229.37	99.040
229.59	85.548
229.80	88.313
230.02	80.022
230.24	84.597
230.45	100.000
230.67	90.462
230.89	85.620
231.11	93.002
231.32	75.820
231.54	115.130
231.76	118.163
231.97	190.173
232.19	172.238
232.41	163.978
232.63	223.913
232.84	132.727
233.06	145.349
233.28	166.159
233.49	136.391
233.71	148.930
233.93	105.825
234.14	109.743
234.36	69.534
234.58	74.085
234.79	86.667
235.01	83.901
235.23	93.614
235.45	96.692
235.66	75.273
235.88	82.158
236.10	71.609
236.31	81.443
236.53	134.354
236.75	290.196
236.96	671.429
237.18	633.333
237.40	445.283
237.61	-452.000
237.83	-1400.000
238.05	-651.282
238.26	-520.588
238.48	2035.294
238.70	185.593
238.91	115.315
239.13	137.885
239.35	83.849
239.56	110.317
239.78	309.091
240.00	-47.253
240.21	23.810
240.43	62.278
240.65	78.010
240.86	48.417
241.08	41.138
241.30	39.590
241.51	56.698
241.73	66.862
241.95	59.397
242.16	52.617
242.38	58.205
242.60	42.655
242.81	35.247
243.03	23.410
243.25	21.197
243.46	21.830
243.68	34.971
243.90	21.635
244.11	15.979
244.33	7.860
244.55	14.624
244.76	12.949
244.98	26.103
245.19	22.518
245.41	21.027
245.63	23.734
245.84	23.598
246.06	8.795
246.28	5.137
246.49	6.607
246.71	6.068
246.92	6.139
247.14	4.653
247.36	5.278
247.57	10.598
247.79	17.707
248.01	16.482
248.22	20.146
248.44	19.593
248.65	21.293
248.87	16.839
249.09	25.122
249.30	25.548
249.52	30.143
249.74	26.604
249.95	20.364
250.17	21.031
250.38	27.817
250.60	29.175
250.82	41.341
251.03	43.238
251.25	50.756
251.46	46.490
251.68	44.883
251.90	44.609
252.11	36.983
252.33	37.521
252.54	30.697
252.76	36.945
252.98	35.556
253.19	29.305
253.41	44.133
253.62	43.105
253.84	35.580
254.06	23.404
254.27	7.712
254.49	11.448
254.70	25.641
254.92	34.884
255.14	12.556
255.35	-4.896
255.57	4.147
255.78	-19.152
256.00	-17.524
256.21	-19.174
256.43	10.544
256.65	26.286
256.86	23.096
257.08	15.350
257.29	6.553
257.51	11.593
257.72	13.490
257.94	7.628
258.16	9.637
258.37	3.048
258.59	12.925
258.80	11.779
259.02	8.002
259.23	9.170
259.45	6.649
259.66	3.897
259.88	5.821
260.10	13.012
260.31	13.279
260.53	15.211
260.74	15.196
260.96	12.394
261.17	11.272
261.39	13.873
261.60	12.163
261.82	16.667
262.04	23.513
262.25	26.092
262.47	22.377
262.68	29.484
262.90	29.180
263.11	38.293
263.33	34.362
263.54	31.082
263.76	30.403
263.97	31.100
264.19	36.610
264.40	41.730
264.62	40.064
264.84	25.795
265.05	25.576
265.27	24.625
265.48	25.686
265.70	25.752
265.91	34.972
266.13	40.827
266.34	47.029
266.56	36.202
266.77	32.919
266.99	28.505
267.20	31.932
267.42	30.064
267.63	27.661
267.85	25.611
268.06	22.201
268.28	12.168
268.49	1.739
268.71	1.703
268.92	-0.602
269.14	1.170
269.35	5.627
269.57	11.283
269.78	5.792
270.00	1.918
270.21	-1.000
270.43	9.006
270.64	15.462
270.86	14.410
271.07	19.214
271.29	14.970
271.50	12.414
271.72	14.014
271.93	5.761
272.15	3.207
272.36	4.610
272.58	4.172
272.79	-2.128
273.01	-7.023
273.22	-4.240
273.44	-20.253
273.65	-7.555
273.87	-4.436
274.08	-5.887
274.30	10.954
274.51	13.876
274.73	17.826
274.94	28.129
275.16	32.191
275.37	33.927
275.59	36.191
275.80	36.123
276.01	26.852
276.23	29.548
276.44	33.182
276.66	24.790
276.87	24.767
277.09	27.236
277.30	22.910
277.52	23.618
277.73	20.926
277.95	23.174
278.16	28.994
278.38	34.918
278.59	31.965
278.80	26.670
279.02	27.622
279.23	32.749
279.45	32.499
279.66	32.471
279.88	33.952
280.09	36.621
280.31	29.451
280.52	20.539
280.73	22.254
280.95	23.426
281.16	27.337
281.38	23.403
281.59	20.315
281.81	18.733
282.02	15.118
282.24	12.017
282.45	8.107
282.66	9.880
282.88	15.467
283.09	16.101
283.31	21.593
283.52	20.000
283.74	20.956
283.95	18.138
284.16	25.326
284.38	27.732
284.59	26.576
284.81	26.758
285.02	27.438
285.23	31.665
285.45	29.764
285.66	26.393
285.88	27.424
286.09	29.732
286.31	32.584
286.52	25.686
286.73	26.564
286.95	27.612
287.16	28.723
287.38	28.252
287.59	24.478
287.80	26.813
288.02	23.981
288.23	19.380
288.45	22.808
288.66	26.358
288.87	30.565
289.09	27.692
289.30	25.916
289.52	26.623
289.73	25.481
289.94	27.102
290.16	27.610
290.37	29.811
290.58	30.649
290.80	22.763
291.01	18.510
291.23	16.136
291.44	17.862
291.65	19.551
291.87	18.677
292.08	22.862
292.29	21.626
292.51	19.839
292.72	18.989
292.94	21.109
293.15	29.283
293.36	29.663
293.58	26.777
293.79	28.200
294.00	27.646
294.22	24.643
294.43	23.234
294.65	19.274
294.86	13.859
295.07	13.953
295.29	11.107
295.50	5.525
295.71	6.297
295.93	6.262
296.14	7.834
296.35	5.655
296.57	8.437
296.78	5.459
296.99	8.482
297.21	9.437
297.42	8.347
297.63	13.849
297.85	15.415
298.06	16.844
298.28	20.106
298.49	17.395
298.70	15.693
298.92	15.132
299.13	13.778
299.34	11.905
299.56	14.966
299.77	17.044
299.98	16.164
300.20	19.809
300.41	21.440
300.62	22.324
300.84	24.794
301.05	30.721
301.26	31.470
301.47	37.984
301.69	37.678
301.90	37.760
302.11	34.168
302.33	32.043
302.54	31.121
302.75	26.661
302.97	23.545
303.18	18.847
303.39	14.659
303.61	15.724
303.82	2.728
304.03	4.141
304.25	-0.185
304.46	5.580
304.67	3.091
304.88	0.490
305.10	0.138
305.31	2.150
305.52	2.857
305.74	2.262
305.95	-0.271
306.16	10.441
306.38	7.416
306.59	11.610
306.80	6.262
307.01	8.235
307.23	9.395
307.44	2.795
307.65	6.026
307.87	11.106
308.08	19.928
308.29	24.222
308.50	19.420
308.72	23.869
308.93	19.616
309.14	26.050
309.36	26.241
309.57	28.259
309.78	29.240
309.99	25.235
310.21	21.852
310.42	16.217
310.63	12.939
310.84	17.525
311.06	13.025
311.27	21.687
311.48	19.776
311.70	16.704
311.91	16.958
312.12	20.195
312.33	25.728
312.55	24.618
312.76	26.478
312.97	23.600
313.18	22.231
313.40	27.991
313.61	24.427
313.82	23.971
314.03	25.991
314.25	23.590
314.46	25.103
314.67	18.846
314.88	19.775
315.10	19.154
315.31	24.603
315.52	23.564
315.73	20.467
315.95	15.948
316.16	19.012
316.37	20.172
316.58	19.773
316.80	19.935
317.01	18.684
317.22	17.476
317.43	14.157
317.64	9.542
317.86	13.933
318.07	10.453
318.28	18.012
318.49	17.954
318.71	17.826
318.92	15.929
319.13	10.804
319.34	14.795
319.55	18.284
319.77	23.232
319.98	20.298
320.19	14.694
320.40	18.497
320.62	13.711
320.83	15.209
321.04	13.396
321.25	13.607
321.46	16.576
321.68	15.207
321.89	16.344
322.10	8.494
322.31	8.944
322.52	9.710
322.74	10.449
322.95	12.652
323.16	12.065
323.37	15.276
323.58	21.302
323.80	17.601
324.01	18.916
324.22	18.642
324.43	24.439
324.64	24.291
324.86	28.948
325.07	27.669
325.28	27.704
325.49	30.579
325.70	27.735
325.91	23.185
326.13	29.120
326.34	28.173
326.55	25.498
326.76	27.997
326.97	30.088
327.18	29.634
327.40	30.700
327.61	33.508
327.82	28.127
328.03	28.358
328.24	31.989
328.45	31.634
328.67	31.835
328.88	33.123
329.09	35.012
329.30	35.907
329.51	33.113
329.72	31.824
329.94	31.382
330.15	34.667
330.36	36.200
330.57	35.369
330.78	32.057
330.99	37.443
331.21	33.302
331.42	30.653
331.63	36.081
331.84	32.725
332.05	37.125
332.26	36.885
332.47	30.413
332.69	26.815
332.90	27.936
333.11	30.716
333.32	31.530
333.53	34.762
333.74	33.677
333.95	28.256
334.16	32.238
334.38	25.258
334.59	24.012
334.80	31.539
335.01	36.115
335.22	37.311
335.43	40.570
335.64	35.190
335.85	37.814
336.07	38.037
336.28	36.807
336.49	39.471
336.70	41.214
336.91	37.649
337.12	38.311
337.33	36.046
337.54	33.879
337.76	28.716
337.97	32.664
338.18	29.189
338.39	28.142
338.60	31.202
338.81	25.018
339.02	27.444
339.23	29.041
339.44	27.560
339.65	28.481
339.87	26.908
340.08	26.903
340.29	23.571
340.50	25.954
340.71	25.137
340.92	27.712
341.13	28.585
341.34	27.390
341.55	29.532
341.76	26.232
341.97	27.223
342.19	27.796
342.40	26.828
342.61	25.483
342.82	25.077
343.03	28.778
343.24	23.204
343.45	24.127
343.66	23.558
343.87	22.495
344.08	22.692
344.29	20.680
344.50	18.204
344.71	18.067
344.93	24.301
345.14	24.409
345.35	23.958
345.56	24.362
345.77	23.692
345.98	20.325
346.19	18.348
346.40	17.509
346.61	17.836
346.82	19.601
347.03	20.267
347.24	12.936
347.45	10.948
347.66	6.999
347.87	9.215
348.08	9.996
348.29	16.043
348.50	21.378
348.71	21.239
348.93	23.208
349.14	24.385
349.35	25.377
349.56	27.950
349.77	28.309
349.98	29.903
350.19	26.017
350.40	26.494
350.61	24.238
350.82	24.569
351.03	28.409
351.24	27.949
351.45	27.121
351.66	25.079
351.87	25.339
352.08	26.194
352.29	28.275
352.50	31.039
352.71	30.572
352.92	29.803
353.13	26.715
353.34	24.551
353.55	23.962
353.76	24.335
353.97	25.133
354.18	25.546
354.39	22.466
354.60	21.399
354.81	22.010
355.02	21.488
355.23	22.248
355.44	20.335
355.65	21.165
355.86	19.415
356.07	21.926
356.28	22.312
356.49	24.388
356.70	27.028
356.91	24.756
357.12	24.683
357.33	25.579
357.54	24.056
357.75	24.965
357.96	24.148
358.17	26.155
358.38	23.291
358.59	23.507
358.80	21.358
359.01	20.406
359.22	20.149
359.43	21.106
359.64	21.712
359.85	20.632
360.06	21.736
360.27	20.359
360.48	18.621
360.69	18.258
360.90	17.409
361.11	15.253
361.32	13.524
361.53	14.005
361.74	16.052
361.95	14.575
362.16	17.833
362.37	16.292
362.58	18.463
362.79	19.961
362.99	20.396
363.20	19.955
363.41	24.075
363.62	27.058
363.83	27.867
364.04	26.131
364.25	26.497
364.46	24.543
364.67	25.236
364.88	24.099
365.09	20.070
365.30	20.516
365.51	21.982
365.72	18.835
365.93	17.850
366.14	18.427
366.35	17.222
366.56	17.933
366.76	17.605
366.97	18.821
367.18	19.129
367.39	21.559
367.60	22.098
367.81	23.104
368.02	24.139
368.23	22.584
368.44	20.908
368.65	22.072
368.86	19.632
369.07	22.918
369.28	21.749
369.48	18.197
369.69	16.776
369.90	15.288
370.11	14.111
370.32	14.411
370.53	13.811
370.74	14.535
370.95	13.657
371.16	15.322
371.37	13.357
371.58	13.826
371.78	17.813
371.99	19.746
372.20	20.575
372.41	20.356
372.62	20.724
372.83	23.212
373.04	24.888
373.25	24.188
373.46	25.368
373.67	26.198
373.87	25.042
374.08	23.572
374.29	23.964
374.50	22.812
374.71	22.713
374.92	21.420
375.13	18.202
375.34	16.543
375.55	16.175
375.75	13.028
375.96	13.692
376.17	17.252
376.38	13.966
376.59	14.112
376.80	15.800
377.01	15.295
377.21	13.120
377.42	13.734
377.63	12.571
377.84	15.734
378.05	18.040
378.26	17.624
378.47	16.086
378.68	19.074
378.88	18.223
379.09	17.153
379.30	16.972
379.51	19.927
379.72	21.011
379.93	22.201
380.14	20.941
380.34	19.661
380.55	17.506
380.76	17.160
380.97	17.307
381.18	18.072
381.39	18.377
381.59	19.243
381.80	19.591
382.01	20.800
382.22	20.919
382.43	19.790
382.64	19.469
382.84	22.464
383.05	22.080
383.26	21.390
383.47	21.289
383.68	20.783
383.89	19.594
384.09	19.395
384.30	18.892
384.51	18.232
384.72	17.653
384.93	17.533
385.14	17.484
385.34	16.963
385.55	18.056
385.76	18.415
385.97	18.734
386.18	21.463
386.38	21.808
386.59	20.861
386.80	18.920
387.01	22.364
387.22	22.973
387.42	22.381
387.63	24.939
387.84	23.206
388.05	22.076
388.26	20.207
388.46	17.862
388.67	18.486
388.88	17.990
389.09	18.076
389.30	17.321
389.50	16.479
389.71	17.507
389.92	14.764
390.13	15.976
390.34	15.081
390.54	15.326
390.75	14.961
390.96	15.442
391.17	15.459
391.37	17.471
391.58	15.867
391.79	18.033
392.00	16.571
392.21	16.984
392.41	15.390
392.62	15.301
392.83	15.101
393.04	13.343
393.24	13.225
393.45	14.624
393.66	15.663
393.87	14.102
394.07	11.616
394.28	12.470
394.49	12.661
394.70	12.168
394.91	12.893
395.11	14.854
395.32	17.975
395.53	15.509
395.74	14.417
395.94	12.833
396.15	12.958
396.36	13.745
396.57	13.401
396.77	15.557
396.98	17.720
397.19	16.860
397.40	17.263
397.60	17.629
397.81	19.019
398.02	19.446
398.22	20.909
398.43	21.668
398.64	22.376
398.85	20.038
399.05	19.142
399.26	18.183
399.47	19.853
399.68	17.917
399.88	17.148
400.09	17.057
400.30	15.726
400.50	13.311
400.71	15.325
400.92	13.788
401.13	13.386
401.33	12.819
401.54	14.217
401.75	14.024
401.95	15.025
402.16	14.307
402.37	13.445
402.58	13.097
402.78	14.295
402.99	12.775
403.20	12.547
403.40	13.823
403.61	14.611
403.82	13.496
404.03	11.682
404.23	12.583
404.44	14.070
404.65	15.189
404.85	15.279
405.06	13.606
405.27	14.439
405.47	16.947
405.68	17.131
405.89	14.374
406.09	15.070
406.30	15.775
406.51	15.281
406.71	13.800
406.92	13.916
407.13	15.652
407.34	16.332
407.54	18.267
407.75	16.648
407.96	16.910
408.16	18.206
408.37	17.984
408.58	18.070
408.78	17.978
408.99	19.351
409.20	18.230
409.40	16.444
409.61	16.961
409.82	12.706
410.02	13.158
410.23	12.321
410.44	13.667
410.64	14.024
410.85	13.577
411.05	12.518
411.26	11.294
411.47	11.210
411.67	12.884
411.88	14.588
412.09	17.354
412.29	18.211
412.50	18.932
412.71	18.463
412.91	17.335
413.12	18.574
413.33	19.005
413.53	20.194
413.74	21.431
413.94	21.636
414.15	21.669
414.36	20.746
414.56	20.343
414.77	20.205
414.98	18.472
415.18	18.833
415.39	17.990
415.59	18.636
415.80	18.239
416.01	17.565
416.21	16.014
416.42	14.183
416.63	13.477
416.83	13.496
417.04	12.835
417.24	13.562
417.45	13.354
417.66	14.071
417.86	13.524
418.07	12.344
418.27	12.445
418.48	12.825
418.69	14.145
418.89	14.878
419.10	14.437
419.30	15.338
419.51	15.736
419.72	15.540
419.92	15.697
420.13	16.774
420.33	17.037
420.54	16.549
420.75	17.350
420.95	16.495
421.16	15.999
421.36	15.772
421.57	15.804
421.78	15.655
421.98	15.193
422.19	15.183
422.39	14.999
422.60	14.959
422.80	14.932
423.01	13.688
423.22	13.465
423.42	13.418
423.63	13.666
423.83	12.825
424.04	13.299
424.24	14.059
424.45	14.368
424.66	13.702
424.86	13.752
425.07	13.512
425.27	13.868
425.48	14.362
425.68	13.940
425.89	13.378
426.10	13.372
426.30	12.858
426.51	13.016
426.71	10.789
426.92	10.351
427.12	10.791
427.33	11.715
427.53	11.015
427.74	12.149
427.94	12.571
428.15	13.044
428.36	12.764
428.56	14.210
428.77	15.034
428.97	16.711
429.18	17.621
429.38	17.959
429.59	18.584
429.79	20.435
430.00	17.888
430.20	19.333
430.41	18.882
430.61	19.898
430.82	20.185
431.02	19.648
431.23	19.227
431.43	19.403
431.64	19.420
431.84	18.932
432.05	17.647
432.26	18.944
432.46	16.216
432.67	17.690
432.87	17.532
433.08	15.771
433.28	15.405
433.49	15.978
433.69	15.677
433.90	16.064
434.10	15.329
434.31	16.452
434.51	16.803
434.72	18.295
434.92	17.551
435.13	17.435
435.33	18.173
435.54	18.814
435.74	18.187
435.95	17.668
436.15	17.508
436.36	19.031
436.56	19.127
436.76	18.905
436.97	19.466
437.17	19.357
437.38	19.452
437.58	18.659
437.79	17.653
437.99	18.013
438.20	19.050
438.40	19.450
438.61	19.367
438.81	19.109
439.02	18.674
439.22	17.066
439.43	16.934
439.63	16.762
439.84	16.492
440.04	16.961
440.24	16.612
440.45	15.819
440.65	14.559
440.86	14.147
441.06	13.912
441.27	14.077
441.47	15.593
441.68	16.039
441.88	16.348
442.09	17.580
442.29	16.795
442.49	16.235
442.70	16.967
442.90	17.050
443.11	16.668
443.31	17.149
443.52	16.725
443.72	15.501
443.93	14.830
444.13	15.089
444.33	13.823
444.54	14.020
444.74	15.197
444.95	14.989
445.15	15.183
445.36	15.553
445.56	15.194
445.76	14.980
445.97	15.334
446.17	15.735
446.38	15.939
446.58	15.897
446.79	15.914
446.99	15.745
447.19	15.923
447.40	16.038
447.60	16.021
447.81	16.603
448.01	16.636
448.21	15.856
448.42	15.458
448.62	14.430
448.83	15.804
449.03	16.406
449.23	17.024
449.44	16.617
449.64	16.159
449.85	15.669
450.05	14.564
450.25	14.781
450.46	16.042
450.66	15.466
450.87	16.344
451.07	15.156
451.27	15.309
451.48	14.544
451.68	15.234
451.88	15.290
452.09	15.829
452.29	16.078
452.50	16.328
452.70	16.400
452.90	16.587
453.11	15.999
453.31	15.660
453.51	15.451
453.72	15.818
453.92	14.464
454.13	14.928
454.33	14.604
454.53	14.853
454.74	14.290
454.94	13.243
455.14	14.596
455.35	14.460
455.55	14.965
455.75	15.651
455.96	15.632
456.16	15.400
456.37	15.350
456.57	14.367
456.77	15.342
456.98	15.664
457.18	16.116
457.38	14.759
457.59	15.001
457.79	13.889
457.99	12.909
458.20	12.862
458.40	13.513
458.60	14.011
458.81	14.451
459.01	13.286
459.21	13.789
459.42	13.916
459.62	14.930
459.82	13.910
460.03	14.406
460.23	14.887
460.43	15.522
460.64	15.294
460.84	15.062
461.04	16.116
461.25	16.534
461.45	16.188
461.65	15.893
461.86	15.066
462.06	16.225
462.26	15.701
462.46	15.810
462.67	14.011
462.87	15.009
463.07	16.024
463.28	14.751
463.48	13.991
463.68	14.387
463.89	15.904
464.09	15.753
464.29	15.459
464.49	16.756
464.70	16.583
464.90	18.426
465.10	17.895
465.31	16.024
465.51	15.351
465.71	15.604
465.92	15.143
466.12	14.025
466.32	14.652
466.52	15.335
466.73	15.809
466.93	15.138
467.13	14.963
467.33	13.673
467.54	15.109
467.74	15.522
467.94	15.463
468.15	15.159
468.35	15.442
468.55	14.995
468.75	14.706
468.96	14.358
469.16	14.062
469.36	13.609
469.56	14.146
469.77	12.355
469.97	13.441
470.17	12.960
470.37	13.866
470.58	13.419
470.78	13.684
470.98	14.178
471.18	13.530
471.39	14.129
471.59	14.360
471.79	15.096
471.99	16.282
472.20	15.950
472.40	16.480
472.60	17.380
472.80	17.577
473.01	18.240
473.21	18.599
473.41	19.098
473.61	18.772
473.82	18.577
474.02	18.312
474.22	17.565
474.42	16.687
474.63	16.777
474.83	16.461
475.03	16.442
475.23	15.219
475.43	13.843
475.64	12.635
475.84	12.951
476.04	12.486
476.24	13.384
476.44	12.720
476.65	12.439
476.85	12.161
477.05	11.412
477.25	10.483
477.46	11.037
477.66	11.693
477.86	13.079
478.06	12.636
478.26	12.372
478.47	12.176
478.67	13.481
478.87	13.713
479.07	14.392
479.27	14.654
479.48	15.655
479.68	15.054
479.88	15.200
480.08	14.471
480.28	15.590
480.48	15.640
480.69	14.550
480.89	14.010
481.09	14.391
481.29	14.483
481.49	14.263
481.70	13.913
481.90	14.050
482.10	13.774
482.30	13.886
482.50	13.345
482.70	13.451
482.91	14.006
483.11	14.280
483.31	14.247
483.51	13.968
483.71	13.904
483.91	13.947
484.12	14.099
484.32	14.377
484.52	14.427
484.72	14.544
484.92	14.636
485.12	14.631
485.32	14.453
485.53	14.507
485.73	14.430
485.93	14.286
486.13	14.048
486.33	14.006
486.53	13.634
486.73	13.405
486.94	13.267
487.14	13.536
487.34	13.956
487.54	13.795
487.74	13.691
487.94	14.055
488.14	14.082
488.35	14.817
488.55	14.818
488.75	14.889
488.95	15.191
489.15	15.319
489.35	15.087
489.55	14.784
489.75	15.190
489.96	14.823
490.16	14.518
490.36	14.722
490.56	14.443
490.76	14.608
490.96	14.980
491.16	14.934
491.36	14.710
491.56	14.939
491.77	14.744
491.97	14.770
492.17	15.210
492.37	15.658
492.57	15.559
492.77	15.572
492.97	15.603
493.17	15.526
493.37	15.438
493.57	16.152
493.78	16.349
493.98	16.242
494.18	16.480
494.38	16.854
494.58	15.969
494.78	15.980
494.98	16.203
495.18	16.320
495.38	15.838
495.58	16.450
495.78	16.115
495.98	15.536
496.19	16.330
496.39	16.069
496.59	15.875
496.79	16.556
496.99	17.165
497.19	16.940
497.39	16.796
497.59	16.369
497.79	15.268
497.99	15.367
498.19	14.912
498.39	14.586
498.59	14.040
498.79	13.535
498.99	13.389
499.19	12.776
499.40	12.052
499.60	11.818
499.80	12.591
500.00	13.410
500.20	13.560
500.40	13.985
500.60	13.277
500.80	14.064
501.00	15.181
501.20	14.618
501.40	14.854
501.60	15.782
501.80	15.989
502.00	15.688
502.20	15.655
502.40	15.993
502.60	16.176
502.80	16.896
503.00	16.488
503.20	15.944
503.40	16.005
503.60	16.269
503.80	16.142
504.00	16.496
504.20	16.278
504.40	17.187
504.60	17.157
504.80	17.285
505.00	16.823
505.20	16.544
505.40	16.931
505.60	16.830
505.80	17.025
506.00	17.127
506.20	16.217
506.40	16.656
506.60	16.280
506.80	15.819
507.00	15.924
507.20	16.028
507.40	15.792
507.60	14.336
507.80	14.643
508.00	14.461
508.20	14.680
508.40	14.892
508.60	14.511
508.80	13.388
509.00	13.860
509.20	13.797
509.40	13.922
509.60	14.972
509.80	15.699
510.00	15.931
510.20	15.579
510.40	14.883
510.60	15.008
510.80	15.255
511.00	16.228
511.20	15.593
511.40	15.233
511.60	15.567
511.80	15.316
512.00	14.902
512.20	15.247
512.40	15.902
512.60	16.030
512.80	16.065
513.00	16.178
513.20	15.530
513.40	15.647
513.60	16.264
513.80	16.422
513.99	16.263
514.19	17.575
514.39	17.234
514.59	16.527
514.79	16.442
514.99	16.398
515.19	16.387
515.39	16.784
515.59	16.421
515.79	16.156
515.99	15.268
516.19	15.418
516.39	14.682
516.59	14.972
516.79	14.794
516.98	14.498
517.18	14.974
517.38	14.986
517.58	15.090
517.78	15.959
517.98	16.414
518.18	16.510
518.38	16.287
518.58	16.387
518.78	16.284
518.98	16.611
519.18	17.464
519.37	17.377
519.57	17.435
519.77	17.772
519.97	16.938
520.17	16.199
520.37	16.814
520.57	17.072
520.77	16.989
520.97	17.252
521.17	17.653
521.36	17.460
521.56	17.789
521.76	18.374
521.96	18.284
522.16	18.657
522.36	19.357
522.56	18.666
522.76	18.934
522.96	18.378
523.15	18.400
523.35	18.057
523.55	18.279
523.75	18.274
523.95	18.229
524.15	17.808
524.35	17.469
524.55	18.133
524.74	17.980
524.94	17.706
525.14	18.379
525.34	18.805
525.54	18.966
525.74	18.568
525.94	18.405
526.13	17.747
526.33	18.548
526.53	18.666
526.73	18.090
526.93	18.461
527.13	18.560
527.33	18.199
527.52	17.787
527.72	17.572
527.92	17.621
528.12	17.580
528.32	17.700
528.52	17.162
528.71	17.269
528.91	17.186
529.11	17.108
529.31	17.205
529.51	17.338
529.71	17.389
529.90	17.362
530.10	17.314
530.30	17.070
530.50	17.535
530.70	17.924
530.90	18.074
531.09	18.143
531.29	18.019
531.49	17.800
531.69	18.191
531.89	18.081
532.09	18.209
532.28	18.693
532.48	18.903
532.68	18.579
532.88	18.171
533.08	18.268
533.27	18.033
533.47	18.163
533.67	17.926
533.87	18.065
534.07	18.092
534.26	18.021
534.46	18.052
534.66	18.138
534.86	17.725
535.06	18.445
535.25	18.249
535.45	18.668
535.65	18.572
535.85	18.790
536.04	18.263
536.24	18.747
536.44	19.091
536.64	18.556
536.84	18.106
537.03	18.402
537.23	17.474
537.43	17.962
537.63	18.323
537.82	18.297
538.02	18.678
538.22	18.900
538.42	18.259
538.62	18.587
538.81	18.864
539.01	19.258
539.21	20.007
539.41	20.792
539.60	20.812
539.80	20.446
540.00	20.986
540.20	20.799
540.39	20.759
540.59	20.552
540.79	19.431
540.99	19.349
541.18	19.426
541.38	18.951
541.58	18.622
541.78	18.656
541.97	18.725
542.17	18.629
542.37	18.790
542.57	18.801
542.76	18.802
542.96	19.541
543.16	19.677
543.36	19.494
543.55	19.797
543.75	19.570
543.95	18.938
544.14	18.747
544.34	18.771
544.54	18.590
544.74	18.468
544.93	18.794
545.13	18.881
545.33	18.471
545.52	18.549
545.72	18.384
545.92	18.725
546.12	18.818
546.31	18.865
546.51	18.691
546.71	18.350
546.90	18.495
547.10	19.016
547.30	18.310
547.49	18.264
547.69	18.526
547.89	17.930
548.09	18.486
548.28	18.954
548.48	19.357
548.68	19.366
548.87	20.126
549.07	19.901
549.27	19.586
549.46	20.675
549.66	20.629
549.86	20.787
550.05	22.095
550.25	21.465
550.45	22.144
550.64	21.444
550.84	21.784
551.04	22.076
551.24	22.149
551.43	20.841
551.63	20.349
551.83	20.689
552.02	21.347
552.22	20.886
552.41	21.447
552.61	21.441
552.81	22.466
553.00	22.221
553.20	21.474
553.40	21.049
553.59	22.078
553.79	22.064
553.99	22.394
554.18	21.855
554.38	21.437
554.58	21.007
554.77	20.967
554.97	20.743
555.17	21.087
555.36	20.308
555.56	21.326
555.76	21.209
555.95	21.638
556.15	21.653
556.34	22.262
556.54	22.469
556.74	22.011
556.93	21.634
557.13	21.563
557.33	20.857
557.52	22.868
557.72	22.812
557.91	22.310
558.11	21.275
558.31	20.722
558.50	20.232
558.70	20.569
558.90	21.306
559.09	20.800
559.29	21.284
559.48	21.520
559.68	20.002
559.88	19.668
560.07	20.684
560.27	22.618
560.46	23.013
560.66	22.703
560.86	23.181
561.05	22.429
561.25	23.011
561.44	22.382
561.64	22.595
561.84	23.398
562.03	23.031
562.23	21.988
562.42	19.991
562.62	19.498
562.81	19.839
563.01	19.572
563.21	20.531
563.40	20.838
563.60	20.647
563.79	21.456
563.99	21.245
564.18	21.209
564.38	21.222
564.58	21.357
564.77	21.951
564.97	21.629
565.16	21.663
565.36	21.435
565.55	21.157
565.75	21.397
565.95	20.474
566.14	20.906
566.34	21.189
566.53	21.406
566.73	22.789
566.92	23.028
567.12	22.755
567.31	22.654
567.51	22.405
567.71	22.629
567.90	21.989
568.10	22.069
568.29	22.198
568.49	22.104
568.68	22.627
568.88	23.050
569.07	22.475
569.27	23.448
569.46	23.469
569.66	24.066
569.85	23.768
570.05	24.857
570.24	25.769
570.44	24.515
570.64	24.728
570.83	24.154
571.03	22.598
571.22	22.438
571.42	22.463
571.61	23.064
571.81	22.489
572.00	21.838
572.20	21.692
572.39	20.992
572.59	22.179
572.78	22.392
572.98	22.279
573.17	22.588
573.37	22.727
573.56	23.393
573.76	22.882
573.95	23.407
574.15	23.403
574.34	22.884
574.54	23.285
574.73	22.575
574.93	21.914
575.12	22.588
575.32	22.156
575.51	22.564
575.71	21.594
575.90	21.510
576.10	21.318
576.29	21.772
576.49	21.829
576.68	21.325
576.87	20.865
577.07	21.071
577.26	21.397
577.46	21.536
577.65	21.689
577.85	21.222
578.04	21.069
578.24	20.667
578.43	21.158
578.63	22.032
578.82	22.404
579.02	23.460
579.21	23.552
579.41	23.925
579.60	23.488
579.79	23.311
579.99	23.228
580.18	23.494
580.38	24.581
580.57	24.872
580.77	23.490
580.96	23.945
581.16	22.932
581.35	23.552
581.54	22.571
581.74	23.144
581.93	24.153
582.13	25.212
582.32	25.261
582.52	23.892
582.71	23.013
582.90	25.181
583.10	24.991
583.29	24.925
583.49	24.086
583.68	23.095
583.88	23.272
584.07	22.495
584.26	21.945
584.46	21.857
584.65	22.284
584.85	22.665
585.04	22.232
585.23	21.617
585.43	23.485
585.62	24.058
585.82	24.401
586.01	24.342
586.20	23.652
586.40	24.241
586.59	23.268
586.79	23.696
586.98	24.035
587.17	22.596
587.37	20.962
587.56	19.687
587.76	19.569
587.95	19.924
588.14	20.497
588.34	20.950
588.53	19.373
588.73	21.026
588.92	20.394
589.11	21.109
589.31	22.258
589.50	24.069
589.69	24.175
589.89	24.231
590.08	24.409
590.28	24.403
590.47	24.457
590.66	25.085
590.86	24.675
591.05	24.370
591.24	22.888
591.44	22.213
591.63	23.128
591.82	23.865
592.02	23.534
592.21	24.235
592.41	24.549
592.60	26.031
592.79	26.265
592.99	25.555
593.18	26.434
593.37	26.327
593.57	26.357
593.76	25.102
593.95	25.076
594.15	26.058
594.34	25.631
594.53	24.772
594.73	23.575
594.92	22.832
595.11	25.291
595.31	24.989
595.50	25.013
595.69	25.596
595.89	25.597
596.08	25.448
596.27	25.146
596.47	24.232
596.66	24.657
596.85	24.670
597.05	25.629
597.24	23.493
597.43	23.257
597.62	23.635
597.82	22.475
598.01	23.134
598.20	22.050
598.40	22.009
598.59	22.679
598.78	22.729
598.98	22.753
599.17	22.466
599.36	22.543
599.55	22.857
599.75	23.153
599.94	23.971
600.13	23.966
600.33	24.752
600.52	24.021
600.71	24.097
600.91	24.795
601.10	24.632
601.29	25.278
601.48	25.941
601.68	25.199
601.87	23.463
602.06	23.335
602.25	23.382
602.45	23.257
602.64	23.485
602.83	23.659
603.03	23.576
603.22	23.394
603.41	22.714
603.60	22.728
603.80	24.232
603.99	24.263
604.18	25.054
604.37	25.151
604.57	25.637
604.76	25.083
604.95	23.847
605.14	22.883
605.34	23.185
605.53	23.458
605.72	24.120
605.91	23.110
606.11	24.225
606.30	24.190
606.49	24.269
606.68	22.814
606.88	23.883
607.07	25.575
607.26	26.266
607.45	26.177
607.65	25.714
607.84	24.070
608.03	24.923
608.22	23.627
608.41	22.966
608.61	21.758
608.80	22.307
608.99	21.800
609.18	21.773
609.38	22.339
609.57	23.162
609.76	23.495
609.95	23.879
610.14	23.073
610.34	23.118
610.53	23.536
610.72	23.645
610.91	24.509
611.10	25.170
611.30	25.512
611.49	26.271
611.68	27.223
611.87	26.828
612.06	28.356
612.26	28.888
612.45	30.095
612.64	30.730
612.83	31.537
613.02	32.231
613.22	31.176
613.41	30.052
613.60	29.212
613.79	27.713
613.98	27.556
614.17	24.488
614.37	25.920
614.56	26.478
614.75	24.660
614.94	24.206
615.13	23.881
615.32	24.179
615.52	24.049
615.71	22.802
615.90	21.038
616.09	20.606
616.28	22.509
616.47	20.557
616.67	19.386
616.86	19.518
617.05	19.105
617.24	18.808
617.43	19.270
617.62	20.119
617.82	19.837
618.01	21.332
618.20	22.534
618.39	23.639
618.58	24.311
618.77	24.109
618.96	24.331
619.16	26.392
619.35	26.029
619.54	25.511
619.73	25.401
619.92	27.708
620.11	26.970
620.30	27.774
620.49	25.746
620.69	24.986
620.88	26.901
621.07	25.290
621.26	24.548
621.45	24.853
621.64	23.624
621.83	24.597
622.02	22.778
622.22	22.601
622.41	21.136
622.60	22.297
622.79	23.501
622.98	22.372
623.17	23.353
623.36	22.754
623.55	21.066
623.74	23.224
623.93	20.398
624.13	20.409
624.32	20.293
624.51	19.871
624.70	19.490
624.89	17.766
625.08	17.683
625.27	18.855
625.46	17.972
625.65	17.653
625.84	17.278
626.03	18.684
626.23	18.535
626.42	19.403
626.61	19.478
626.80	19.878
626.99	20.537
627.18	20.862
627.37	19.515
627.56	19.112
627.75	20.260
627.94	20.346
628.13	19.528
628.32	17.765
628.51	17.989
628.70	17.772
628.89	17.324
629.09	17.675
629.28	17.502
629.47	18.381
629.66	20.861
629.85	20.315
630.04	18.460
630.23	19.297
630.42	22.367
630.61	19.836
630.80	20.844
630.99	21.402
631.18	20.452
631.37	19.664
631.56	19.158
631.75	17.111
631.94	17.437
632.13	19.677
632.32	18.860
632.51	18.133
632.70	18.238
632.89	19.274
633.08	18.265
633.27	19.559
633.46	20.605
633.65	22.829
633.84	23.701
634.03	25.027
634.22	24.795
634.41	24.565
634.60	24.816
634.79	25.757
634.99	24.237
635.18	25.216
635.37	25.044
635.56	23.576
635.75	21.415
635.94	18.830
636.13	17.036
636.32	15.658
636.51	16.992
636.69	15.318
636.88	15.343
637.07	14.511
637.26	13.421
637.45	12.155
637.64	13.851
637.83	15.409
638.02	15.714
638.21	16.930
638.40	19.230
638.59	16.730
638.78	19.431
638.97	19.308
639.16	19.950
639.35	21.048
639.54	23.103
639.73	21.764
639.92	21.678
640.11	23.205
640.30	23.368
640.49	22.855
640.68	24.706
640.87	22.960
641.06	23.128
641.25	24.236
641.44	23.322
641.63	19.993
641.82	20.567
642.01	21.216
642.20	19.863
642.39	18.629
642.58	18.942
642.76	18.696
642.95	19.629
643.14	19.800
643.33	20.611
643.52	19.853
643.71	20.404
643.90	21.067
644.09	20.474
644.28	22.094
644.47	23.096
644.66	22.367
644.85	24.749
645.04	24.327
645.23	23.411
645.41	22.524
645.60	23.338
645.79	25.135
645.98	24.204
646.17	23.228
646.36	21.652
646.55	22.245
646.74	22.323
646.93	20.527
647.12	19.048
647.31	22.621
647.49	20.739
647.68	20.443
647.87	21.454
648.06	22.355
648.25	22.051
648.44	25.087
648.63	26.289
648.82	26.917
649.01	27.256
649.20	28.582
649.38	26.163
649.57	27.051
649.76	28.713
649.95	28.152
650.14	29.753
650.33	29.561
650.52	28.536
650.71	26.665
650.89	25.184
651.08	22.104
651.27	23.518
651.46	23.673
651.65	23.981
651.84	23.777
652.03	23.706
652.22	21.223
652.40	21.758
652.59	22.052
652.78	20.737
652.97	21.632
653.16	24.304
653.35	21.141
653.54	21.291
653.72	20.764
653.91	20.060
654.10	19.963
654.29	20.552
654.48	21.287
654.67	20.436
654.85	21.636
655.04	21.946
655.23	21.355
655.42	24.899
655.61	24.310
655.80	21.677
655.98	22.545
656.17	21.414
656.36	22.863
656.55	21.802
656.74	22.742
656.93	21.738
657.11	20.396
657.30	20.221
657.49	17.357
657.68	18.630
657.87	21.295
658.06	19.698
658.24	21.109
658.43	20.361
658.62	20.176
658.81	20.142
659.00	20.530
659.18	21.049
659.37	20.076
659.56	20.783
659.75	20.523
659.94	20.505
660.12	20.674
660.31	20.449
660.50	19.377
660.69	19.229
660.88	18.465
661.06	19.676
661.25	20.233
661.44	22.217
661.63	22.866
661.81	22.290
662.00	21.992
662.19	21.649
662.38	21.323
662.57	23.026
662.75	24.542
662.94	23.990
663.13	22.475
663.32	21.087
663.50	21.107
663.69	20.008
663.88	20.825
664.07	20.511
664.25	21.280
664.44	20.073
664.63	19.437
664.82	17.528
665.00	18.349
665.19	16.095
665.38	18.497
665.57	17.643
665.75	19.031
665.94	20.172
666.13	20.487
666.32	21.655
666.50	20.515
666.69	20.693
666.88	21.049
667.07	20.752
667.25	23.196
667.44	20.943
667.63	20.133
667.82	19.152
668.00	18.372
668.19	21.130
668.38	20.432
668.56	20.298
668.75	21.082
668.94	22.108
669.13	21.779
669.31	23.393
669.50	25.514
669.69	26.578
669.88	26.626
670.06	23.160
670.25	21.525
670.44	20.697
670.62	21.664
670.81	21.755
671.00	21.434
671.18	21.060
671.37	20.586
671.56	18.868
671.75	19.812
671.93	18.147
672.12	21.052
672.31	21.129
672.49	21.832
672.68	21.733
672.87	20.021
673.05	20.574
673.24	19.835
673.43	19.180
673.61	17.928
673.80	16.062
673.99	18.991
674.17	20.748
674.36	20.984
674.55	20.741
674.73	21.916
674.92	22.519
675.11	21.450
675.29	21.952
675.48	21.788
675.67	22.130
675.85	21.499
676.04	20.569
676.23	20.145
676.41	19.797
676.60	19.342
676.79	20.804
676.97	20.374
677.16	19.310
677.35	20.797
677.53	22.271
677.72	22.535
677.91	23.226
678.09	25.210
678.28	23.716
678.47	22.502
678.65	23.007
678.84	21.524
679.02	20.634
679.21	22.771
679.40	20.213
679.58	19.067
679.77	21.359
679.96	22.246
680.14	20.132
680.33	21.277
680.51	21.695
680.70	21.711
680.89	23.488
681.07	25.596
681.26	25.204
681.44	26.391
681.63	26.340
681.82	24.719
682.00	24.006
682.19	24.297
682.38	24.357
682.56	24.706
682.75	26.751
682.93	25.074
683.12	22.994
683.31	20.341
683.49	20.524
683.68	19.911
683.86	19.515
684.05	21.905
684.23	22.569
684.42	22.389
684.61	23.788
684.79	19.711
684.98	20.794
685.16	21.619
685.35	22.795
685.54	19.922
685.72	19.544
685.91	19.627
686.09	18.089
686.28	16.820
686.46	16.705
686.65	14.705
686.83	15.478
687.02	14.289
687.21	15.214
687.39	16.717
687.58	20.176
687.76	20.599
687.95	19.567
688.13	18.328
688.32	17.987
688.50	15.900
688.69	18.302
688.88	19.390
689.06	19.098
689.25	18.931
689.43	19.347
689.62	18.624
689.80	19.263
689.99	20.820
690.17	22.514
690.36	23.416
690.54	22.975
690.73	21.732
690.91	21.816
691.10	22.576
691.29	21.928
691.47	23.199
691.66	23.216
691.84	22.860
692.03	22.606
692.21	21.598
692.40	24.201
692.58	28.304
692.77	28.706
692.95	27.073
693.14	29.641
693.32	29.793
693.51	28.158
693.69	29.356
693.88	28.143
694.06	28.967
694.25	29.499
694.43	27.019
694.62	23.288
694.80	21.044
694.99	22.572
695.17	19.679
695.36	21.556
695.54	20.190
695.73	20.269
695.91	22.196
696.10	21.483
696.28	21.552
696.47	22.136
696.65	24.015
696.84	24.770
697.02	25.874
697.20	26.244
697.39	24.033
697.57	26.310
697.76	24.333
697.94	22.994
698.13	24.654
698.31	25.261
698.50	23.921
698.68	23.744
698.87	23.605
699.05	22.317
699.24	22.268
699.42	24.333
699.60	23.153
699.79	24.889
699.97	24.833
700.16	24.771
700.34	22.905
700.53	24.171
700.71	23.612
700.90	25.014
701.08	25.305
701.26	23.934
701.45	22.499
701.63	23.502
701.82	19.673
702.00	20.646
702.19	19.530
702.37	21.008
702.55	20.745
702.74	22.453
702.92	21.928
703.11	22.118
703.29	23.671
703.48	23.239
703.66	23.959
703.84	27.585
704.03	30.349
704.21	29.400
704.40	27.127
704.58	24.521
704.76	20.539
704.95	19.738
705.13	19.072
705.32	20.274
705.50	21.003
705.68	16.452
705.87	18.504
706.05	11.990
706.24	12.298
706.42	14.635
706.60	14.455
706.79	17.431
706.97	18.873
707.15	19.411
707.34	20.578
707.52	19.571
707.71	24.345
707.89	21.851
708.07	26.451
708.26	27.539
708.44	27.766
708.62	31.197
708.81	32.529
708.99	28.820
709.18	30.655
709.36	28.033
709.54	30.733
709.73	28.622
709.91	31.981
710.09	31.012
710.28	32.107
710.46	27.428
710.64	25.518
710.83	24.858
711.01	28.155
711.19	26.303
711.38	27.447
711.56	21.980
711.74	25.809
711.93	24.189
712.11	23.283
712.30	20.165
712.48	20.664
712.66	23.005
712.85	23.063
713.03	19.847
713.21	21.601
713.39	20.596
713.58	26.005
713.76	22.903
713.94	22.470
714.13	24.268
714.31	26.852
714.49	26.794
714.68	23.559
714.86	24.248
715.04	28.291
715.23	24.570
715.41	25.636
715.59	23.536
715.78	22.203
715.96	21.236
716.14	18.631
716.32	18.547
716.51	23.147
716.69	28.048
716.87	24.418
717.06	22.998
717.24	27.019
717.42	24.825
717.61	26.438
717.79	27.383
717.97	29.750
718.15	31.605
718.34	29.578
718.52	29.024
718.70	28.886
718.88	32.117
719.07	30.977
719.25	26.906
719.43	31.299
719.62	31.823
719.80	32.470
719.98	29.372
720.16	27.778
720.35	27.459
720.53	29.664
720.71	23.775
720.89	20.727
721.08	20.284
721.26	27.754
721.44	25.853
721.62	22.820
721.81	21.158
721.99	23.214
722.17	24.737
722.35	23.063
722.54	19.365
722.72	23.864
722.90	25.139
723.08	21.561
723.27	17.125
723.45	15.829
723.63	15.548
723.81	18.782
724.00	19.219
724.18	21.595
724.36	21.827
724.54	19.544
724.72	15.599
724.91	16.889
725.09	21.438
725.27	17.819
725.45	19.334
725.64	18.999
725.82	19.629
726.00	21.576
726.18	21.005
726.36	22.071
726.55	27.035
726.73	29.065
726.91	26.451
727.09	25.337
727.27	30.198
727.46	27.082
727.64	28.202
727.82	27.032
728.00	25.607
728.18	29.648
728.37	32.740
728.55	30.168
728.73	29.150
728.91	33.923
729.09	35.662
729.27	32.222
729.46	33.505
729.64	34.656
729.82	35.545
730.00	35.902
730.18	32.310
730.36	30.076
730.55	29.659
730.73	29.243
730.91	25.766
731.09	25.070
731.27	25.460
731.45	25.357
731.64	22.797
731.82	22.962
732.00	20.247
732.18	17.949
732.36	17.265
732.54	20.549
732.73	24.240
732.91	24.772
733.09	26.584
733.27	29.363
733.45	32.830
733.63	36.429
733.81	39.766
734.00	42.268
734.18	42.273
734.36	38.552
734.54	34.926
734.72	34.984
734.90	33.235
735.08	25.638
735.26	22.764
735.45	19.392
735.63	16.933
735.81	9.163
735.99	8.468
736.17	14.119
736.35	20.373
736.53	25.276
736.71	20.998
736.89	21.835
737.08	26.421
737.26	25.521
737.44	25.306
737.62	29.502
737.80	28.463
737.98	29.312
738.16	25.346
738.34	22.161
738.52	20.693
738.70	19.568
738.89	20.482
739.07	25.837
739.25	26.639
739.43	28.062
739.61	20.281
739.79	23.710
739.97	24.905
740.15	27.214
740.33	35.446
740.51	32.287
740.69	35.405
740.87	37.590
741.06	30.906
741.24	33.095
741.42	32.002
741.60	37.419
741.78	38.689
741.96	34.946
742.14	30.891
742.32	23.517
742.50	28.040
742.68	25.983
742.86	24.378
743.04	25.964
743.22	29.281
743.40	23.229
743.58	22.548
743.76	20.219
743.94	21.514
744.12	28.293
744.30	33.639
744.49	35.145
744.67	40.620
744.85	37.819
745.03	39.760
745.21	41.941
745.39	45.295
745.57	41.518
745.75	43.035
745.93	46.950
746.11	43.885
746.29	45.184
746.47	37.844
746.65	35.045
746.83	39.518
747.01	42.179
747.19	38.025
747.37	39.029
747.55	44.033
747.73	40.504
747.91	41.819
748.09	40.375
748.27	35.701
748.45	40.850
748.63	39.265
748.81	40.873
748.99	41.220
749.17	37.111
749.35	34.029
749.53	31.696
749.71	33.702
749.89	34.801
750.07	38.407
750.25	41.405
750.43	40.922
750.61	40.800
750.79	36.509
750.97	35.718
751.15	37.742
751.33	39.303
751.51	38.612
751.69	37.074
751.87	34.246
752.05	31.038
752.23	27.583
752.40	26.382
752.58	21.873
752.76	27.188
752.94	22.941
753.12	26.264
753.30	27.772
753.48	27.303
753.66	31.877
753.84	37.065
754.02	37.677
754.20	42.053
754.38	38.633
754.56	42.871
754.74	36.164
754.92	39.517
755.10	36.228
755.28	32.518
755.46	30.392
755.64	25.145
755.81	22.327
755.99	24.683
756.17	23.102
756.35	24.033
756.53	22.740
756.71	27.044
756.89	24.240
757.07	19.964
757.25	22.582
757.43	22.729
757.61	24.964
757.79	23.952
757.96	20.843
758.14	19.875
758.32	20.830
758.50	22.906
758.68	20.235
758.86	24.728
759.04	27.838
759.22	28.458
759.40	29.333
759.58	31.312
759.75	29.179
759.93	29.580
760.11	32.648
760.29	36.225
760.47	36.222
760.65	41.103
760.83	37.160
761.01	38.602
761.19	37.477
761.36	34.994
761.54	32.447
761.72	33.599
761.90	31.338
762.08	32.539
762.26	31.933
762.44	34.859
762.62	30.709
762.79	33.672
762.97	36.652
763.15	31.448
763.33	31.815
763.51	30.486
763.69	29.470
763.87	31.922
764.04	30.805
764.22	30.595
764.40	28.375
764.58	31.008
764.76	28.219
764.94	24.367
765.11	30.059
765.29	36.500
765.47	42.474
765.65	40.985
765.83	44.202
766.01	42.384
766.18	43.962
766.36	44.121
766.54	42.402
766.72	45.010
766.90	42.759
767.08	45.024
767.25	40.147
767.43	37.364
767.61	35.250
767.79	29.377
767.97	30.630
768.14	25.872
768.32	26.208
768.50	25.287
768.68	22.603
768.86	27.761
769.03	22.642
769.21	22.921
769.39	22.354
769.57	22.805
769.75	24.943
769.92	27.427
770.10	31.516
770.28	27.602
770.46	29.084
770.64	29.123
770.81	35.137
770.99	31.615
771.17	28.090
771.35	28.986
771.53	33.861
771.70	34.286
771.88	32.148
772.06	36.345
772.24	37.354
772.41	37.024
772.59	34.557
772.77	36.228
772.95	36.805
773.12	36.627
773.30	39.858
773.48	45.754
773.66	48.899
773.84	51.243
774.01	33.924
774.19	37.390
774.37	35.964
774.55	43.536
774.72	29.020
774.90	36.429
775.08	45.028
775.25	41.145
775.43	48.688
775.61	36.663
775.79	34.505
775.96	41.594
776.14	37.651
776.32	32.937
776.50	17.642
776.67	27.273
776.85	23.253
777.03	20.649
777.21	22.837
777.38	6.514
777.56	20.522
777.74	17.297
777.91	29.989
778.09	34.509
778.27	39.385
778.45	47.497
778.62	44.299
778.80	46.160
778.98	41.112
779.15	37.718
779.33	44.016
779.51	34.566
779.68	40.787
779.86	41.257
780.04	44.978
780.22	46.238
780.39	54.607
780.57	57.824
780.75	58.445
780.92	65.700
781.10	65.526
781.28	63.652
781.45	70.682
781.63	67.028
781.81	59.879
781.98	54.276
782.16	57.031
782.34	47.437
782.51	39.904
782.69	38.849
782.87	37.838
783.04	41.980
783.22	40.466
783.40	39.594
783.57	35.612
783.75	36.415
783.93	44.177
784.10	34.151
784.28	48.860
784.46	54.108
784.63	53.846
784.81	56.028
784.99	56.045
785.16	59.141
785.34	62.137
785.52	59.489
785.69	67.716
785.87	62.197
786.04	71.954
786.22	61.060
786.40	62.199
786.57	67.772
786.75	62.117
786.93	55.509
787.10	55.132
787.28	54.923
787.45	54.366
787.63	44.992
787.81	51.587
787.98	51.613
788.16	47.360
788.34	41.912
788.51	41.171
788.69	49.013
788.86	50.655
789.04	39.660
789.22	42.218
789.39	33.634
789.57	40.093
789.74	47.547
789.92	47.440
790.10	59.472
790.27	60.611
790.45	53.333
790.62	48.859
790.80	50.507
790.97	62.749
791.15	53.899
791.33	67.310
791.50	59.835
791.68	64.299
791.85	69.361
792.03	61.341
792.21	67.358
792.38	77.091
792.56	89.175
792.73	82.480
792.91	81.850
793.08	97.531
793.26	92.588
793.44	112.581
793.61	97.107
793.79	103.286
793.96	98.798
794.14	84.802
794.31	67.623
794.49	50.287
794.66	47.846
794.84	29.167
795.01	25.570
795.19	32.099
795.37	32.255
795.54	27.572
795.72	38.993
795.89	30.851
796.07	29.073
796.24	28.429
796.42	32.918
796.59	28.615
796.77	30.460
796.94	35.183
797.12	22.524
797.29	27.014
797.47	31.520
797.64	17.978
797.82	25.027
797.99	24.426
798.17	35.498
798.35	37.865
798.52	42.726
798.70	39.945
798.87	39.082
799.05	35.143
799.22	30.013
799.40	25.968
799.57	36.714
799.75	39.120
799.92	33.501
800.10	22.089
800.27	23.256
800.45	28.556
800.62	34.845
800.79	28.216
800.97	45.884
801.14	44.088
801.32	58.000
801.49	54.982
801.67	44.114
801.84	61.392
802.02	70.240
802.19	64.263
802.37	58.000
802.54	63.520
802.72	65.017
802.89	53.027
803.07	55.763
803.24	42.259
803.42	40.098
803.59	39.934
803.76	33.053
803.94	37.302
804.11	38.584
804.29	43.270
804.46	38.067
804.64	39.438
804.81	36.364
804.99	32.194
805.16	32.156
805.34	40.325
805.51	45.185
805.68	45.465
805.86	34.266
806.03	20.350
806.21	36.058
806.38	31.685
806.56	31.656
806.73	29.300
806.90	40.325
807.08	42.643
807.25	27.753
807.43	23.288
807.60	19.083
807.78	10.553
807.95	36.285
808.12	24.507
808.30	36.435
808.47	30.300
808.65	34.536
808.82	24.212
808.99	12.248
809.17	19.939
809.34	38.813
809.52	50.796
809.69	83.701
809.86	76.083
810.04	72.321
810.21	72.243
810.39	80.222
810.56	88.976
810.73	90.458
810.91	96.276
811.08	83.616
811.25	82.768
811.43	74.110
811.60	64.026
811.78	57.474
811.95	64.225
812.12	60.274
812.30	52.530
812.47	45.701
812.64	49.899
812.82	62.893
812.99	68.509
813.17	59.584
813.34	57.528
813.51	54.511
813.69	47.425
813.86	40.750
814.03	32.232
814.21	40.559
814.38	40.195
814.55	38.351
814.73	26.326
814.90	31.768
815.07	35.893
815.25	43.175
815.42	39.061
815.59	48.133
815.77	41.622
815.94	48.060
816.11	53.436
816.29	52.133
816.46	51.776
816.63	55.082
816.81	54.662
816.98	53.953
817.15	39.583
817.33	55.348
817.50	48.840
817.67	58.310
817.85	63.922
818.02	61.818
818.19	60.034
818.37	46.423
818.54	54.312
818.71	63.876
818.88	64.724
819.06	78.704
819.23	62.042
819.40	60.573
819.58	53.049
819.75	48.164
819.92	48.262
820.09	53.706
820.27	51.891
820.44	41.412
820.61	32.094
820.79	24.588
820.96	16.466
821.13	12.012
821.30	17.343
821.48	21.042
821.65	21.049
821.82	16.706
822.00	13.816
822.17	15.208
822.34	18.408
822.51	19.295
822.69	18.442
822.86	18.968
823.03	22.707
823.20	23.457
823.38	25.336
823.55	22.750
823.72	23.520
823.89	23.667
824.07	24.058
824.24	22.154
824.41	19.073
824.58	22.674
824.76	22.955
824.93	22.524
825.10	22.005
825.27	21.763
825.45	21.549
825.62	21.354
825.79	21.460
825.96	19.863
826.13	23.124
826.31	26.801
826.48	21.621
826.65	21.026
826.82	18.055
827.00	20.099
827.17	22.892
827.34	27.575
827.51	27.733
827.68	26.602
827.86	31.605
828.03	30.644
828.20	33.435
828.37	35.756
828.54	34.991
828.72	37.003
828.89	33.120
829.06	32.895
829.23	29.743
829.40	32.269
829.58	36.343
829.75	37.890
829.92	38.424
830.09	33.836
830.26	33.763
830.44	41.180
830.61	47.910
830.78	56.607
830.95	63.595
831.12	62.409
831.29	61.151
831.47	70.461
831.64	78.220
831.81	77.735
831.98	86.447
832.15	101.713
832.32	118.097
832.50	110.758
832.67	100.536
832.84	78.473
833.01	75.754
833.18	82.779
833.35	70.392
833.53	60.410
833.70	60.470
833.87	57.320
834.04	54.633
834.21	49.889
834.38	33.780
834.55	32.503
834.72	30.154
834.90	37.247
835.07	31.639
835.24	40.299
835.41	42.225
835.58	43.050
835.75	43.609
835.92	44.810
836.10	38.760
836.27	37.283
836.44	41.027
836.61	47.426
836.78	42.294
836.95	37.216
837.12	37.500
837.29	43.406
837.46	46.994
837.64	41.283
837.81	41.469
837.98	43.794
838.15	50.842
838.32	46.837
838.49	37.023
838.66	41.057
838.83	48.527
839.00	45.087
839.17	38.410
839.34	36.692
839.52	36.501
839.69	39.336
839.86	40.239
840.03	35.868
840.20	35.095
840.37	60.112
840.54	73.051
840.71	84.091
840.88	82.609
841.05	85.303
841.22	89.831
841.39	93.548
841.56	114.416
841.74	146.085
841.91	128.246
842.08	132.519
842.25	121.094
842.42	113.514
842.59	96.305
842.76	89.009
842.93	86.200
843.10	109.073
843.27	116.212
843.44	88.314
843.61	75.912
843.78	69.474
843.95	68.200
844.12	79.108
844.29	80.412
844.46	93.214
844.63	103.512
844.80	96.983
844.97	60.938
845.14	0.837
845.31	-12.000
845.48	33.482
845.65	49.254
845.82	65.605
845.99	58.657
846.16	89.024
846.33	90.625
846.50	64.286
846.67	-40.000
846.85	326.471
847.02	182.906
847.19	155.769
847.36	88.679
847.53	336.842
847.70	134.328
847.87	-77.273
848.03	42.718
848.20	8.134
848.37	-2.151
848.54	45.417
848.71	42.917
848.88	77.670
849.05	76.336
849.22	204.040
849.39	98.889
849.56	84.091
849.73	2200.000
849.90	97.872
850.07	-164.286
850.24	-479.167
850.41	332.558
850.58	376.923
850.75	139.303
850.92	155.479
851.09	152.586
851.26	-1122.222
851.43	524.638
851.60	322.078
851.77	4007.692
851.94	543.956
852.11	644.068
852.28	-389.474
852.45	-568.493
852.62	-285.577
852.79	-188.757
852.96	-498.551
853.12	-350.000
853.29	-77.434
853.46	10.000
853.63	-48.858
853.80	-54.762
853.97	-55.484
854.14	-73.665
854.31	-107.547
854.48	-258.095
854.65	-229.730
854.82	992.453
854.99	523.214
855.16	256.034
855.33	312.609
855.49	237.198
855.66	284.028
855.83	138.433
856.00	121.154
856.17	163.776
856.34	333.846
856.51	205.970
856.68	294.805
856.85	258.696
857.02	2600.000
857.18	203.867
857.35	384.615
857.52	325.000
857.69	377.778
857.86	347.143
858.03	231.405
858.20	-351.020
858.37	-251.563
858.54	1012.000
858.70	219.008
858.87	209.259
859.04	-216.279
859.21	681.818
859.38	500.000
859.55	-443.182
859.72	544.776
859.89	258.824
860.05	111.221
860.22	124.816
860.39	105.898
860.56	122.255
860.73	122.454
860.90	118.600
861.07	128.665
861.23	155.504
861.40	128.220
861.57	144.104
861.74	235.216
861.91	323.318
862.08	1680.645
862.24	52900.000
862.41	-436.634
862.58	-225.342
862.75	-551.020
862.92	-413.725
863.09	598.361
863.25	-4400.000
863.42	430.682
863.59	318.868
863.76	256.000
863.93	186.700
864.10	265.278
864.26	306.452
864.43	185.766
864.60	309.615
864.77	241.011
864.94	1360.714
865.10	285.496
865.27	353.488
865.44	192.638
865.61	196.571
865.78	213.018
865.94	173.047
866.11	201.779
866.28	300.000
866.45	281.250
866.62	325.000
866.78	167.347
866.95	344.737
867.12	259.052
867.29	225.436
867.46	223.826
867.62	148.338
867.79	155.372
867.96	136.239
868.13	146.300
868.29	138.889
868.46	137.879
868.63	124.453
868.80	107.122
868.97	94.088
869.13	76.295
869.30	57.213
869.47	135.616
869.64	163.804
869.80	206.870
869.97	191.429
870.14	195.205
870.31	201.948
870.47	-1892.857
870.64	21300.000
870.81	-5650.000
870.98	1492.308
871.14	-6220.000
871.31	303.077
871.48	255.310
871.65	183.681
871.81	154.574
871.98	163.699
872.15	195.142
872.31	191.481
872.48	250.000
872.65	226.855
872.82	356.028
872.98	183.045
873.15	238.189
873.32	215.451
873.48	217.427
873.65	243.049
873.82	222.222
873.99	229.148
874.15	177.091
874.32	159.177
874.49	204.545
874.65	140.945
874.82	208.462
874.99	210.931
875.16	316.055
875.32	434.507
875.49	394.969
875.66	384.091
875.82	295.082
875.99	468.657
876.16	-35200.000
876.32	6040.000
876.49	-220.988
876.66	3200.000
876.82	-313.043
876.99	-197.727
877.16	-225.714
877.32	223.810
877.49	-47.368
877.66	-16.667
877.82	62.766
877.99	119.124
878.16	119.718
878.32	100.420
878.49	105.134
878.66	98.326
878.82	94.626
878.99	106.193
879.16	146.008
879.32	88.816
879.49	94.000
879.66	97.443
879.82	74.927
879.99	117.674
880.16	464.444
880.32	177.778
880.49	336.364
880.65	-1084.615
880.82	100.000
880.99	-70.886
881.15	4375.000
881.32	338.272
881.49	157.205
881.65	251.429
881.82	135.535
881.98	114.251
882.15	131.220
882.32	107.288
882.48	104.397
882.65	113.573
882.82	117.852
882.98	93.605
883.15	89.160
883.31	80.694
883.48	55.268
883.65	52.790
883.81	48.514
883.98	43.054
884.14	34.140
884.31	29.456
884.48	23.112
884.64	17.585
884.81	16.756
884.97	15.434
885.14	20.103
885.30	36.947
885.47	38.173
885.64	46.145
885.80	35.995
885.97	28.605
886.13	33.592
886.30	44.881
886.47	48.552
886.63	45.425
886.80	47.195
886.96	41.340
887.13	37.037
887.29	29.980
887.46	28.454
887.62	36.506
887.79	41.954
887.96	42.455
888.12	45.000
888.29	410.526
888.45	38.462
888.62	4.950
888.78	-77.273
>>>>>End Processed Spectral Data<<<<<
