SpectraSuite Data File
++++++++++++++++++++++++++++++++++++
Date: Mon Jan 12 10:55:22 EST 2009
User: Lex
Dark Spectrum Present: Yes
Reference Spectrum Present: Yes
Number of Sampled Component Spectra: 1
Spectrometers: USB4E03001
Integration Time (usec): 100000 (USB4E03001)
Spectra Averaged: 5 (USB4E03001)
Boxcar Smoothing: 5 (USB4E03001)
Correct for Electrical Dark: No (USB4E03001)
Strobe/Lamp Enabled: Yes (USB4E03001)
Correct for Detector Non-linearity: No (USB4E03001)
Correct for Stray Light: No (USB4E03001)
Number of Pixels in Processed Spectrum: 3648
>>>>>Begin Processed Spectral Data<<<<<
177.57	-156.667
177.79	-156.667
178.01	-156.667
178.23	1170.000
178.45	76.271
178.66	259.211
178.88	219.403
179.10	152.416
179.32	138.614
179.54	76.804
179.76	67.542
179.98	90.083
180.20	123.636
180.42	147.619
180.64	410.870
180.86	850.000
181.08	220.513
181.30	235.079
181.52	330.657
181.74	1008.000
181.96	-3068.421
182.18	-920.000
182.40	-845.205
182.62	-3100.000
182.84	-811.667
183.06	3200.000
183.28	597.015
183.50	-334.524
183.72	-344.286
183.94	-339.683
184.16	110.526
184.38	47.059
184.60	107.843
184.82	-118.605
185.04	-1725.000
185.26	-55.769
185.48	162.500
185.69	-2.667
185.91	-17.742
186.13	263.492
186.35	313.115
186.57	-141.509
186.79	125.758
187.01	317.143
187.23	-565.217
187.45	-216.981
187.67	-160.145
187.89	-217.204
188.11	348.052
188.33	841.379
188.55	-289.474
188.77	-1655.556
188.99	333.333
189.21	270.400
189.42	146.829
189.64	241.935
189.86	295.789
190.08	240.909
190.30	398.824
190.52	7225.000
190.74	231.383
190.96	563.636
191.18	-1038.095
191.40	-222.404
191.62	-99.329
191.84	-91.589
192.06	-59.211
192.27	-98.268
192.49	-87.719
192.71	-449.123
192.93	-174.419
193.15	-31.023
193.37	-75.135
193.59	-86.087
193.81	-103.333
194.03	-216.438
194.25	-132.174
194.47	4283.333
194.68	-340.299
194.90	-344.000
195.12	-176.692
195.34	881.579
195.56	484.722
195.78	550.000
196.00	290.000
196.22	171.795
196.44	214.286
196.66	191.406
196.87	198.936
197.09	225.397
197.31	265.217
197.53	-2225.000
197.75	5016.667
197.97	1480.769
198.19	-782.609
198.41	-652.941
198.63	-187.571
198.84	-792.857
199.06	-277.586
199.28	-128.571
199.50	-177.222
199.72	-223.926
199.94	-528.302
200.16	-48.881
200.38	-11.149
200.59	-57.589
200.81	-40.214
201.03	-84.000
201.25	-77.992
201.47	-336.111
201.69	546.479
201.91	222.989
202.13	176.955
202.34	281.675
202.56	182.943
202.78	177.493
203.00	222.353
203.22	175.248
203.44	221.201
203.66	218.021
203.87	369.461
204.09	517.241
204.31	8460.000
204.53	-1458.621
204.75	919.048
204.97	540.741
205.19	1787.500
205.40	2260.000
205.62	1091.667
205.84	304.839
206.06	-1686.667
206.28	271.223
206.50	547.692
206.71	265.946
206.93	244.000
207.15	293.023
207.37	430.172
207.59	437.179
207.81	292.766
208.02	217.361
208.24	188.773
208.46	169.164
208.68	166.465
208.90	125.250
209.12	152.027
209.33	166.376
209.55	117.988
209.77	137.604
209.99	111.905
210.21	156.386
210.43	220.755
210.64	330.645
210.86	262.825
211.08	758.750
211.30	1253.061
211.52	815.278
211.74	524.490
211.95	1105.660
212.17	593.023
212.39	482.407
212.61	179.389
212.83	197.423
213.04	354.237
213.26	276.623
213.48	154.400
213.70	177.848
213.92	155.556
214.13	202.370
214.35	174.786
214.57	222.599
214.79	-2409.091
215.01	-311.765
215.22	-706.250
215.44	291.339
215.66	440.476
215.88	376.552
216.10	1010.526
216.31	-484.127
216.53	-207.812
216.75	-152.663
216.97	-118.386
217.19	-373.636
217.40	-1635.714
217.62	-539.506
217.84	-187.654
218.06	-190.789
218.27	-85.789
218.49	-275.701
218.71	-1876.471
218.93	-1013.333
219.15	-2730.000
219.36	-226.667
219.58	40.816
219.80	1128.571
220.02	147.581
220.23	81.070
220.45	57.806
220.67	41.872
220.89	57.143
221.11	95.000
221.32	-1100.000
221.54	25.862
221.76	1133.333
221.98	249.296
222.19	-166.667
222.41	-144.643
222.63	-119.663
222.85	-417.949
223.06	-966.667
223.28	-934.375
223.50	-148.454
223.72	-563.636
223.93	376.389
224.15	346.269
224.37	-722.857
224.59	-2807.692
224.80	-874.359
225.02	-482.759
225.24	-128.846
225.46	-34.848
225.67	-79.769
225.89	5933.333
226.11	645.205
226.33	689.231
226.54	871.154
226.76	497.196
226.98	1450.000
227.20	1606.061
227.41	390.909
227.63	414.925
227.85	271.375
228.06	166.102
228.28	181.704
228.50	146.627
228.72	146.667
228.93	138.095
229.15	104.615
229.37	82.442
229.59	60.256
229.80	56.627
230.02	64.286
230.24	69.073
230.45	80.540
230.67	64.884
230.89	51.736
231.11	53.775
231.32	71.330
231.54	105.201
231.76	99.791
231.97	150.000
232.19	137.394
232.41	134.140
232.63	198.696
232.84	166.667
233.06	180.233
233.28	209.146
233.49	178.899
233.71	146.789
233.93	108.738
234.14	108.824
234.36	90.525
234.58	101.611
234.79	115.909
235.01	100.000
235.23	97.831
235.45	99.618
235.66	98.087
235.88	102.905
236.10	119.085
236.31	169.072
236.53	216.667
236.75	507.843
236.96	983.333
237.18	830.556
237.40	460.377
237.61	-286.000
237.83	-906.250
238.05	-302.564
238.26	-270.588
238.48	1023.529
238.70	115.678
238.91	90.541
239.13	103.524
239.35	81.100
239.56	107.937
239.78	600.000
240.00	85.714
240.21	217.460
240.43	65.836
240.65	74.607
240.86	56.425
241.08	46.827
241.30	37.713
241.51	38.318
241.73	34.164
241.95	41.106
242.16	47.934
242.38	52.403
242.60	46.426
242.81	45.352
243.03	42.154
243.25	35.918
243.46	35.558
243.68	53.950
243.90	58.026
244.11	63.711
244.33	50.109
244.55	47.477
244.76	36.106
244.98	33.732
245.19	33.163
245.41	19.380
245.63	27.294
245.84	23.051
246.06	10.228
246.28	6.013
246.49	5.608
246.71	6.935
246.92	4.715
247.14	9.010
247.36	9.249
247.57	11.765
247.79	20.876
248.01	18.795
248.22	23.434
248.44	27.921
248.65	33.252
248.87	29.145
249.09	37.161
249.30	37.868
249.52	41.296
249.74	40.566
249.95	28.617
250.17	19.211
250.38	26.221
250.60	28.647
250.82	28.399
251.03	22.263
251.25	31.200
251.46	23.336
251.68	25.943
251.90	21.662
252.11	22.907
252.33	34.486
252.54	39.266
252.76	42.904
252.98	44.233
253.19	50.053
253.41	49.844
253.62	58.018
253.84	73.340
254.06	77.940
254.27	78.039
254.49	71.862
254.70	75.256
254.92	74.296
255.14	44.000
255.35	24.113
255.57	15.553
255.78	11.081
256.00	7.928
256.21	-10.029
256.43	0.794
256.65	4.771
256.86	19.916
257.08	10.914
257.29	-2.184
257.51	22.809
257.72	30.722
257.94	27.326
258.16	30.253
258.37	27.038
258.59	24.454
258.80	20.671
259.02	27.820
259.23	24.842
259.45	21.687
259.66	20.892
259.88	17.239
260.10	18.783
260.31	19.850
260.53	20.472
260.74	12.998
260.96	15.042
261.17	15.359
261.39	10.897
261.60	9.938
261.82	12.423
262.04	19.149
262.25	16.738
262.47	17.026
262.68	21.324
262.90	24.303
263.11	39.154
263.33	30.934
263.54	35.153
263.76	46.019
263.97	42.300
264.19	45.537
264.40	38.804
264.62	41.568
264.84	28.622
265.05	23.157
265.27	12.625
265.48	20.856
265.70	26.653
265.91	21.078
266.13	10.881
266.34	15.620
266.56	19.288
266.77	20.290
266.99	10.940
267.20	19.985
267.42	24.721
267.63	30.427
267.85	15.249
268.06	15.951
268.28	18.756
268.49	26.473
268.71	26.490
268.92	18.756
269.14	20.370
269.35	35.637
269.57	33.936
269.78	30.088
270.00	27.178
270.21	22.692
270.43	28.098
270.64	23.561
270.86	21.681
271.07	23.716
271.29	27.126
271.50	28.213
271.72	27.393
271.93	19.036
272.15	18.794
272.36	16.595
272.58	26.994
272.79	17.344
273.01	15.920
273.22	18.102
273.44	10.206
273.65	10.479
273.87	8.405
274.08	-1.575
274.30	10.796
274.51	3.333
274.73	10.435
274.94	9.281
275.16	18.481
275.37	24.950
275.59	22.971
275.80	27.138
276.01	22.421
276.23	21.647
276.44	22.987
276.66	25.371
276.87	32.690
277.09	29.859
277.30	26.794
277.52	28.329
277.73	28.382
277.95	33.733
278.16	32.291
278.38	35.301
278.59	36.836
278.80	41.550
279.02	31.404
279.23	34.657
279.45	33.521
279.66	40.396
279.88	37.957
280.09	36.338
280.31	28.304
280.52	27.728
280.73	27.433
280.95	28.075
281.16	25.338
281.38	32.335
281.59	27.496
281.81	33.369
282.02	26.709
282.24	27.482
282.45	26.551
282.66	28.221
282.88	32.879
283.09	34.142
283.31	35.177
283.52	34.737
283.74	34.327
283.95	33.363
284.16	29.143
284.38	32.564
284.59	32.240
284.81	29.713
285.02	28.638
285.23	28.288
285.45	27.048
285.66	26.951
285.88	23.291
286.09	26.006
286.31	27.727
286.52	26.381
286.73	24.332
286.95	24.129
287.16	24.797
287.38	27.076
287.59	24.367
287.80	25.718
288.02	22.382
288.23	22.119
288.45	19.688
288.66	18.821
288.87	21.079
289.09	19.140
289.30	15.773
289.52	15.260
289.73	12.369
289.94	11.015
290.16	9.158
290.37	10.171
290.58	12.170
290.80	7.557
291.01	4.699
291.23	0.784
291.44	5.910
291.65	7.618
291.87	8.517
292.08	11.881
292.29	12.020
292.51	12.435
292.72	13.832
292.94	15.710
293.15	17.988
293.36	19.856
293.58	18.890
293.79	18.600
294.00	19.535
294.22	23.315
294.43	23.095
294.65	19.793
294.86	17.023
295.07	15.805
295.29	15.775
295.50	15.125
295.71	14.074
295.93	17.043
296.14	14.868
296.35	11.897
296.57	7.849
296.78	3.261
296.99	5.769
297.21	6.040
297.42	5.294
297.63	6.942
297.85	4.207
298.06	3.845
298.28	6.198
298.49	9.406
298.70	10.138
298.92	16.735
299.13	19.434
299.34	19.728
299.56	24.745
299.77	25.566
299.98	26.250
300.20	29.157
300.41	33.498
300.62	33.736
300.84	27.308
301.05	29.757
301.26	21.813
301.47	22.881
301.69	25.132
301.90	17.735
302.11	16.733
302.33	12.435
302.54	10.871
302.75	9.808
302.97	9.215
303.18	10.241
303.39	6.505
303.61	11.862
303.82	5.699
304.03	1.396
304.25	0.740
304.46	2.241
304.67	4.215
304.88	9.042
305.10	8.678
305.31	10.076
305.52	16.238
305.74	23.777
305.95	21.445
306.16	30.793
306.38	32.238
306.59	40.333
306.80	42.150
307.01	39.012
307.23	32.279
307.44	29.426
307.65	29.831
307.87	24.872
308.08	21.784
308.29	21.696
308.50	17.548
308.72	17.036
308.93	7.770
309.14	9.210
309.36	9.343
309.57	14.643
309.78	15.606
309.99	14.455
310.21	18.307
310.42	17.261
310.63	16.674
310.84	17.779
311.06	13.650
311.27	20.570
311.48	17.271
311.70	17.673
311.91	15.354
312.12	15.712
312.33	15.382
312.55	11.194
312.76	12.254
312.97	13.440
313.18	12.126
313.40	17.826
313.61	14.484
313.82	18.304
314.03	17.246
314.25	24.125
314.46	25.474
314.67	22.084
314.88	23.363
315.10	18.335
315.31	21.178
315.52	19.609
315.73	18.004
315.95	23.922
316.16	24.476
316.37	31.389
316.58	22.280
316.80	23.576
317.01	24.440
317.22	27.048
317.43	26.337
317.64	22.825
317.86	27.866
318.07	23.544
318.28	19.094
318.49	17.698
318.71	16.229
318.92	17.491
319.13	15.025
319.34	17.314
319.55	16.275
319.77	19.913
319.98	18.584
320.19	12.846
320.40	17.441
320.62	16.609
320.83	17.110
321.04	17.060
321.25	19.549
321.46	19.891
321.68	23.766
321.89	25.521
322.10	21.092
322.31	20.348
322.52	23.083
322.74	20.765
322.95	20.435
323.16	22.770
323.37	20.368
323.58	18.432
323.80	15.596
324.01	7.398
324.22	6.880
324.43	12.908
324.64	13.440
324.86	14.591
325.07	15.299
325.28	13.891
325.49	12.029
325.70	9.109
325.91	8.461
326.13	15.989
326.34	18.013
326.55	14.291
326.76	15.931
326.97	16.418
327.18	19.187
327.40	20.519
327.61	23.571
327.82	22.495
328.03	24.841
328.24	28.226
328.45	26.201
328.67	30.081
328.88	30.596
329.09	27.411
329.30	31.247
329.51	22.390
329.72	23.801
329.94	24.328
330.15	26.163
330.36	26.556
330.57	26.773
330.78	29.362
330.99	28.795
331.21	29.216
331.42	30.101
331.63	28.262
331.84	35.263
332.05	35.487
332.26	35.576
332.47	36.314
332.69	35.833
332.90	34.698
333.11	29.154
333.32	31.611
333.53	31.931
333.74	34.212
333.95	33.511
334.16	30.835
334.38	28.429
334.59	26.835
334.80	26.626
335.01	26.558
335.22	25.991
335.43	30.331
335.64	27.437
335.85	28.602
336.07	25.501
336.28	23.596
336.49	25.206
336.70	26.138
336.91	26.683
337.12	27.669
337.33	30.772
337.54	31.218
337.76	28.644
337.97	30.308
338.18	29.553
338.39	29.558
338.60	30.534
338.81	30.063
339.02	31.353
339.23	29.446
339.44	28.831
339.65	27.527
339.87	27.087
340.08	25.469
340.29	22.557
340.50	24.511
340.71	24.944
340.92	28.897
341.13	27.255
341.34	29.521
341.55	32.117
341.76	30.788
341.97	31.928
342.19	31.196
342.40	32.059
342.61	33.054
342.82	30.078
343.03	31.413
343.24	28.051
343.45	28.816
343.66	26.963
343.87	24.029
344.08	23.237
344.29	19.737
344.50	17.530
344.71	16.422
344.93	19.895
345.14	22.761
345.35	22.526
345.56	20.233
345.77	21.233
345.98	19.128
346.19	18.805
346.40	17.208
346.61	20.000
346.82	20.770
347.03	22.556
347.24	19.268
347.45	14.354
347.66	10.853
347.87	11.288
348.08	7.263
348.29	7.554
348.50	7.447
348.71	7.988
348.93	8.367
349.14	10.084
349.35	10.694
349.56	10.915
349.77	12.804
349.98	14.607
350.19	17.915
350.40	18.546
350.61	18.933
350.82	21.860
351.03	20.560
351.24	19.537
351.45	18.007
351.66	13.173
351.87	7.919
352.08	9.866
352.29	11.970
352.50	9.911
352.71	15.150
352.92	14.778
353.13	16.590
353.34	15.692
353.55	17.055
353.76	18.372
353.97	22.178
354.18	27.781
354.39	23.896
354.60	23.997
354.81	23.232
355.02	20.968
355.23	23.235
355.44	19.236
355.65	20.871
355.86	17.913
356.07	17.149
356.28	17.076
356.49	14.968
356.70	16.801
356.91	14.693
357.12	17.426
357.33	16.457
357.54	14.411
357.75	15.730
357.96	17.219
358.17	17.340
358.38	16.226
358.59	14.013
358.80	13.375
359.01	14.920
359.22	17.028
359.43	16.903
359.64	19.738
359.85	17.669
360.06	17.581
360.27	16.360
360.48	16.218
360.69	16.464
360.90	18.848
361.11	17.037
361.32	15.078
361.53	12.729
361.74	13.450
361.95	10.342
362.16	13.975
362.37	11.969
362.58	12.488
362.79	12.047
362.99	11.366
363.20	10.981
363.41	13.521
363.62	15.412
363.83	17.226
364.04	17.147
364.25	16.901
364.46	16.437
364.67	17.222
364.88	15.983
365.09	15.953
365.30	17.960
365.51	17.975
365.72	18.312
365.93	16.204
366.14	15.259
366.35	13.836
366.56	14.992
366.76	13.091
366.97	17.327
367.18	18.772
367.39	21.254
367.60	21.186
367.81	18.586
368.02	17.199
368.23	16.839
368.44	14.900
368.65	15.036
368.86	15.783
369.07	15.816
369.28	14.764
369.48	13.288
369.69	11.566
369.90	10.611
370.11	12.644
370.32	12.892
370.53	15.332
370.74	17.028
370.95	15.983
371.16	17.598
371.37	18.664
371.58	17.696
371.78	21.393
371.99	22.376
372.20	22.839
372.41	22.044
372.62	24.766
372.83	24.268
373.04	25.471
373.25	26.284
373.46	24.125
373.67	23.592
373.87	22.632
374.08	19.131
374.29	20.696
374.50	19.042
374.71	18.667
374.92	19.856
375.13	20.816
375.34	20.834
375.55	18.276
375.75	18.328
375.96	17.960
376.17	20.532
376.38	18.808
376.59	16.355
376.80	18.842
377.01	17.611
377.21	12.794
377.42	9.764
377.63	8.003
377.84	11.675
378.05	12.679
378.26	12.519
378.47	8.283
378.68	10.695
378.88	11.214
379.09	9.191
379.30	10.505
379.51	10.247
379.72	11.733
379.93	13.183
380.14	11.594
380.34	8.831
380.55	8.279
380.76	12.544
380.97	11.169
381.18	12.055
381.39	13.391
381.59	14.604
381.80	15.968
382.01	18.244
382.22	16.180
382.43	13.888
382.64	14.915
382.84	16.356
383.05	15.997
383.26	16.783
383.47	16.307
383.68	16.376
383.89	16.305
384.09	16.926
384.30	16.273
384.51	17.531
384.72	19.868
384.93	18.677
385.14	18.527
385.34	18.881
385.55	19.459
385.76	19.760
385.97	17.673
386.18	19.943
386.38	20.890
386.59	18.948
386.80	17.751
387.01	18.903
387.22	22.025
387.42	21.217
387.63	21.033
387.84	19.637
388.05	20.476
388.26	19.435
388.46	18.371
388.67	18.931
388.88	17.753
389.09	16.744
389.30	15.270
389.50	13.603
389.71	14.770
389.92	12.841
390.13	11.471
390.34	10.801
390.54	12.344
390.75	10.482
390.96	10.556
391.17	10.894
391.37	12.765
391.58	12.886
391.79	13.943
392.00	12.826
392.21	13.557
392.41	15.590
392.62	16.079
392.83	16.738
393.04	18.185
393.24	17.414
393.45	19.265
393.66	17.741
393.87	15.993
394.07	14.188
394.28	16.513
394.49	16.451
394.70	16.005
394.91	15.118
395.11	16.062
395.32	14.895
395.53	13.490
395.74	12.687
395.94	15.551
396.15	15.588
396.36	16.679
396.57	15.874
396.77	16.353
396.98	16.157
397.19	15.423
397.40	14.920
397.60	16.673
397.81	16.902
398.02	17.409
398.22	16.554
398.43	18.423
398.64	18.199
398.85	16.506
399.05	14.974
399.26	15.961
399.47	17.035
399.68	15.856
399.88	14.646
400.09	15.031
400.30	14.087
400.50	13.417
400.71	14.067
400.92	14.106
401.13	15.041
401.33	15.196
401.54	15.602
401.75	13.938
401.95	16.350
402.16	16.366
402.37	16.114
402.58	15.165
402.78	16.431
402.99	15.734
403.20	16.405
403.40	15.673
403.61	16.321
403.82	16.066
404.03	17.478
404.23	16.159
404.44	18.189
404.65	18.179
404.85	18.109
405.06	17.264
405.27	16.645
405.47	16.307
405.68	16.654
405.89	17.738
406.09	18.355
406.30	17.477
406.51	19.484
406.71	17.800
406.92	19.396
407.13	21.584
407.34	21.418
407.54	23.373
407.75	23.166
407.96	22.946
408.16	22.626
408.37	22.304
408.58	22.164
408.78	19.135
408.99	18.369
409.20	18.246
409.40	15.466
409.61	15.761
409.82	13.850
410.02	14.482
410.23	13.892
410.44	15.334
410.64	14.465
410.85	14.743
411.05	15.476
411.26	15.831
411.47	14.304
411.67	16.977
411.88	17.427
412.09	17.231
412.29	17.079
412.50	17.910
412.71	16.359
412.91	16.687
413.12	17.453
413.33	16.556
413.53	17.131
413.74	17.343
413.94	17.092
414.15	16.205
414.36	16.481
414.56	16.434
414.77	16.572
414.98	15.238
415.18	14.273
415.39	13.338
415.59	14.146
415.80	13.342
416.01	14.229
416.21	12.931
416.42	12.223
416.63	12.610
416.83	12.988
417.04	12.786
417.24	13.550
417.45	13.776
417.66	14.760
417.86	14.084
418.07	14.419
418.27	13.381
418.48	13.084
418.69	14.386
418.89	13.650
419.10	12.483
419.30	12.574
419.51	12.656
419.72	12.772
419.92	13.089
420.13	13.779
420.33	13.866
420.54	13.722
420.75	14.498
420.95	13.906
421.16	15.047
421.36	15.567
421.57	15.472
421.78	15.677
421.98	15.309
422.19	14.305
422.39	13.453
422.60	13.390
422.80	13.060
423.01	12.269
423.22	11.610
423.42	10.859
423.63	10.817
423.83	10.171
424.04	10.324
424.24	10.600
424.45	11.145
424.66	10.763
424.86	10.143
425.07	10.302
425.27	10.704
425.48	11.699
425.68	11.148
425.89	11.332
426.10	11.969
426.30	12.342
426.51	12.248
426.71	11.402
426.92	11.959
427.12	12.428
427.33	12.701
427.53	12.778
427.74	12.945
427.94	13.681
428.15	13.222
428.36	13.422
428.56	12.907
428.77	14.147
428.97	14.471
429.18	15.622
429.38	15.539
429.59	16.362
429.79	15.932
430.00	14.973
430.20	16.800
430.41	16.869
430.61	17.075
430.82	16.661
431.02	16.409
431.23	16.579
431.43	14.818
431.64	15.044
431.84	13.970
432.05	13.747
432.26	14.128
432.46	11.831
432.67	12.030
432.87	11.890
433.08	11.463
433.28	11.503
433.49	10.770
433.69	11.442
433.90	11.309
434.10	11.922
434.31	12.501
434.51	13.662
434.72	13.952
434.92	13.434
435.13	12.900
435.33	12.928
435.54	13.075
435.74	14.228
435.95	16.468
436.15	16.999
436.36	17.662
436.56	18.554
436.76	17.476
436.97	18.742
437.17	19.098
437.38	19.662
437.58	20.328
437.79	19.331
437.99	18.692
438.20	17.443
438.40	17.152
438.61	17.465
438.81	16.511
439.02	16.702
439.22	16.099
439.43	16.516
439.63	16.054
439.84	14.534
440.04	15.119
440.24	15.232
440.45	14.751
440.65	14.760
440.86	14.866
441.06	15.212
441.27	15.775
441.47	16.038
441.68	16.162
441.88	15.468
442.09	16.202
442.29	15.872
442.49	16.135
442.70	16.279
442.90	15.046
443.11	13.391
443.31	13.142
443.52	12.539
443.72	11.445
443.93	9.981
444.13	11.136
444.33	11.007
444.54	11.025
444.74	11.336
444.95	11.285
445.15	11.022
445.36	11.788
445.56	11.623
445.76	10.601
445.97	11.608
446.17	12.388
446.38	12.232
446.58	12.743
446.79	12.615
446.99	12.017
447.19	12.435
447.40	13.613
447.60	13.421
447.81	13.517
448.01	13.862
448.21	13.383
448.42	13.133
448.62	13.366
448.83	13.951
449.03	15.000
449.23	15.824
449.44	14.490
449.64	14.441
449.85	14.438
450.05	14.445
450.25	14.651
450.46	15.201
450.66	14.927
450.87	14.465
451.07	14.470
451.27	14.505
451.48	14.754
451.68	16.869
451.88	16.140
452.09	16.626
452.29	17.102
452.50	17.556
452.70	16.640
452.90	16.955
453.11	16.966
453.31	15.858
453.51	15.251
453.72	14.436
453.92	12.881
454.13	13.627
454.33	13.551
454.53	14.281
454.74	14.934
454.94	15.106
455.14	15.288
455.35	17.014
455.55	17.364
455.75	16.382
455.96	16.635
456.16	17.101
456.37	17.146
456.57	16.780
456.77	16.501
456.98	14.508
457.18	14.810
457.38	14.749
457.59	13.076
457.79	12.130
457.99	13.133
458.20	12.940
458.40	12.834
458.60	12.822
458.81	13.074
459.01	11.918
459.21	13.100
459.42	12.606
459.62	12.787
459.82	12.759
460.03	13.456
460.23	13.166
460.43	13.108
460.64	13.518
460.84	12.847
461.04	12.631
461.25	13.078
461.45	12.872
461.65	12.590
461.86	11.897
462.06	12.163
462.26	11.192
462.46	12.135
462.67	11.647
462.87	11.427
463.07	12.486
463.28	12.657
463.48	11.846
463.68	11.728
463.89	12.634
464.09	12.792
464.29	12.133
464.49	12.876
464.70	12.319
464.90	13.735
465.10	14.013
465.31	12.914
465.51	11.596
465.71	12.697
465.92	12.173
466.12	12.564
466.32	13.479
466.52	14.143
466.73	14.460
466.93	14.320
467.13	13.460
467.33	12.236
467.54	13.517
467.74	14.600
467.94	14.646
468.15	14.837
468.35	13.764
468.55	13.937
468.75	14.074
468.96	14.311
469.16	13.737
469.36	13.944
469.56	14.127
469.77	14.673
469.97	15.156
470.17	15.135
470.37	15.321
470.58	14.344
470.78	13.288
470.98	13.378
471.18	13.569
471.39	13.448
471.59	13.571
471.79	13.737
471.99	12.592
472.20	12.701
472.40	12.001
472.60	12.756
472.80	14.573
473.01	15.398
473.21	15.668
473.41	15.311
473.61	14.628
473.82	14.743
474.02	15.258
474.22	14.999
474.42	15.102
474.63	15.610
474.83	15.815
475.03	15.739
475.23	15.482
475.43	13.995
475.64	13.518
475.84	13.985
476.04	13.514
476.24	13.491
476.44	14.026
476.65	13.296
476.85	12.852
477.05	13.045
477.25	12.132
477.46	11.519
477.66	12.859
477.86	13.875
478.06	14.661
478.26	15.113
478.47	15.615
478.67	16.371
478.87	15.116
479.07	15.265
479.27	15.181
479.48	15.209
479.68	15.069
479.88	14.675
480.08	13.102
480.28	13.050
480.48	12.953
480.69	12.720
480.89	12.011
481.09	12.772
481.29	12.953
481.49	12.142
481.70	12.299
481.90	12.091
482.10	11.772
482.30	11.564
482.50	11.106
482.70	10.802
482.91	10.494
483.11	10.377
483.31	10.401
483.51	10.077
483.71	9.935
483.91	10.054
484.12	10.234
484.32	10.335
484.52	10.631
484.72	10.506
484.92	10.592
485.12	10.734
485.32	10.906
485.53	10.882
485.73	11.052
485.93	11.192
486.13	11.179
486.33	11.137
486.53	11.226
486.73	11.333
486.94	11.582
487.14	11.717
487.34	11.985
487.54	11.946
487.74	11.688
487.94	11.572
488.14	11.593
488.35	11.908
488.55	12.181
488.75	12.173
488.95	12.457
489.15	12.398
489.35	12.526
489.55	12.192
489.75	11.865
489.96	12.144
490.16	12.112
490.36	12.347
490.56	12.130
490.76	11.706
490.96	11.820
491.16	11.538
491.36	11.557
491.56	11.845
491.77	11.750
491.97	11.730
492.17	11.932
492.37	12.504
492.57	12.720
492.77	13.038
492.97	13.286
493.17	13.669
493.37	13.333
493.57	13.192
493.78	12.758
493.98	13.712
494.18	14.075
494.38	14.478
494.58	13.827
494.78	13.228
494.98	12.450
495.18	13.381
495.38	12.671
495.58	13.332
495.78	14.190
495.98	13.908
496.19	13.011
496.39	13.936
496.59	13.526
496.79	14.047
496.99	14.001
497.19	14.349
497.39	13.437
497.59	12.626
497.79	12.461
497.99	12.016
498.19	12.549
498.39	12.688
498.59	12.003
498.79	12.529
498.99	12.075
499.19	12.251
499.40	11.996
499.60	12.462
499.80	13.467
500.00	13.771
500.20	14.529
500.40	14.234
500.60	13.952
500.80	14.382
501.00	14.920
501.20	15.170
501.40	14.954
501.60	15.239
501.80	15.284
502.00	14.992
502.20	14.438
502.40	14.118
502.60	13.936
502.80	14.303
503.00	14.378
503.20	13.254
503.40	13.167
503.60	13.600
503.80	13.336
504.00	13.394
504.20	13.547
504.40	14.348
504.60	14.551
504.80	14.120
505.00	14.089
505.20	13.241
505.40	13.824
505.60	13.548
505.80	14.326
506.00	15.003
506.20	14.550
506.40	14.737
506.60	14.849
506.80	14.071
507.00	14.709
507.20	14.420
507.40	14.187
507.60	13.013
507.80	13.375
508.00	12.926
508.20	12.805
508.40	12.850
508.60	12.801
508.80	12.082
509.00	13.247
509.20	13.543
509.40	14.305
509.60	14.940
509.80	15.299
510.00	15.957
510.20	16.147
510.40	15.556
510.60	16.047
510.80	16.324
511.00	16.811
511.20	16.133
511.40	15.593
511.60	14.972
511.80	14.659
512.00	14.616
512.20	13.904
512.40	13.009
512.60	13.426
512.80	13.093
513.00	12.939
513.20	12.308
513.40	11.731
513.60	11.829
513.80	12.140
513.99	11.820
514.19	12.804
514.39	12.975
514.59	13.327
514.79	13.694
514.99	13.612
515.19	13.531
515.39	13.557
515.59	13.643
515.79	14.310
515.99	14.080
516.19	14.581
516.39	14.120
516.59	14.464
516.79	14.982
516.98	14.342
517.18	14.445
517.38	14.564
517.58	14.750
517.78	15.145
517.98	14.374
518.18	14.136
518.38	13.727
518.58	13.785
518.78	13.274
518.98	12.677
519.18	13.100
519.37	12.994
519.57	12.754
519.77	12.620
519.97	12.489
520.17	12.441
520.37	13.339
520.57	14.496
520.77	14.664
520.97	15.574
521.17	16.614
521.36	16.636
521.56	16.957
521.76	17.378
521.96	18.035
522.16	17.584
522.36	18.379
522.56	17.426
522.76	16.624
522.96	16.262
523.15	15.670
523.35	14.979
523.55	15.302
523.75	15.483
523.95	14.984
524.15	14.836
524.35	15.268
524.55	15.350
524.74	15.603
524.94	16.198
525.14	16.356
525.34	16.939
525.54	17.261
525.74	16.186
525.94	16.198
526.13	16.502
526.33	16.695
526.53	16.413
526.73	15.884
526.93	15.683
527.13	14.905
527.33	14.581
527.52	14.148
527.72	13.896
527.92	14.365
528.12	14.143
528.32	13.915
528.52	13.760
528.71	13.965
528.91	13.921
529.11	14.091
529.31	14.253
529.51	14.466
529.71	14.704
529.90	14.617
530.10	14.883
530.30	14.975
530.50	15.340
530.70	15.665
530.90	15.825
531.09	16.337
531.29	16.097
531.49	16.509
531.69	16.524
531.89	16.383
532.09	16.420
532.28	16.156
532.48	16.086
532.68	15.890
532.88	15.531
533.08	15.271
533.27	14.812
533.47	14.924
533.67	14.432
533.87	14.585
534.07	14.577
534.26	14.617
534.46	14.869
534.66	15.163
534.86	15.231
535.06	15.331
535.25	15.566
535.45	15.873
535.65	15.456
535.85	15.277
536.04	15.114
536.24	15.318
536.44	15.137
536.64	14.651
536.84	13.891
537.03	14.043
537.23	13.933
537.43	14.451
537.63	14.168
537.82	13.990
538.02	14.810
538.22	15.029
538.42	14.683
538.62	15.685
538.81	16.028
539.01	16.711
539.21	16.368
539.41	16.507
539.60	16.118
539.80	16.379
540.00	16.938
540.20	16.721
540.39	16.392
540.59	16.238
540.79	14.959
540.99	15.259
541.18	15.093
541.38	15.565
541.58	15.199
541.78	15.176
541.97	15.118
542.17	15.376
542.37	15.126
542.57	15.264
542.76	15.094
542.96	15.942
543.16	15.911
543.36	15.948
543.55	15.485
543.75	15.653
543.95	15.618
544.14	16.100
544.34	16.157
544.54	16.820
544.74	16.704
544.93	17.106
545.13	17.030
545.33	17.276
545.52	17.492
545.72	17.851
545.92	18.123
546.12	18.578
546.31	18.058
546.51	17.629
546.71	17.757
546.90	17.733
547.10	17.971
547.30	18.160
547.49	17.610
547.69	17.662
547.89	17.826
548.09	18.649
548.28	17.734
548.48	18.028
548.68	18.464
548.87	18.590
549.07	19.053
549.27	19.100
549.46	18.839
549.66	18.774
549.86	18.613
550.05	18.803
550.25	17.581
550.45	18.568
550.64	19.037
550.84	18.908
551.04	18.766
551.24	18.223
551.43	18.511
551.63	17.732
551.83	17.376
552.02	18.167
552.22	17.962
552.41	18.555
552.61	18.524
552.81	18.579
553.00	18.806
553.20	18.735
553.40	19.240
553.59	18.794
553.79	19.778
553.99	20.607
554.18	20.026
554.38	19.527
554.58	19.410
554.77	20.323
554.97	20.415
555.17	20.906
555.36	20.212
555.56	19.754
555.76	20.166
555.95	20.193
556.15	20.811
556.34	21.208
556.54	21.276
556.74	21.519
556.93	20.485
557.13	20.831
557.33	19.470
557.52	19.895
557.72	19.886
557.91	19.737
558.11	19.694
558.31	18.259
558.50	18.576
558.70	19.759
558.90	19.397
559.09	18.972
559.29	18.679
559.48	19.854
559.68	19.135
559.88	19.380
560.07	19.238
560.27	19.917
560.46	19.516
560.66	18.835
560.86	17.634
561.05	17.048
561.25	17.789
561.44	17.595
561.64	18.076
561.84	19.700
562.03	19.749
562.23	19.259
562.42	18.999
562.62	19.802
562.81	20.361
563.01	22.057
563.21	22.575
563.40	23.084
563.60	22.939
563.79	22.860
563.99	22.177
564.18	22.415
564.38	23.194
564.58	22.789
564.77	23.107
564.97	23.180
565.16	22.331
565.36	22.884
565.55	22.803
565.75	23.147
565.95	22.346
566.14	22.774
566.34	22.901
566.53	22.875
566.73	22.377
566.92	21.948
567.12	21.036
567.31	21.165
567.51	20.460
567.71	19.542
567.90	19.258
568.10	19.468
568.29	19.521
568.49	19.655
568.68	19.667
568.88	20.372
569.07	20.469
569.27	22.010
569.46	21.658
569.66	22.127
569.85	22.474
570.05	23.105
570.24	23.510
570.44	22.692
570.64	21.708
570.83	21.651
571.03	20.968
571.22	20.849
571.42	19.881
571.61	19.962
571.81	19.928
572.00	19.834
572.20	19.031
572.39	18.975
572.59	19.887
572.78	20.617
572.98	19.935
573.17	20.437
573.37	20.063
573.56	21.279
573.76	20.931
573.95	21.349
574.15	21.555
574.34	21.283
574.54	20.720
574.73	19.177
574.93	19.139
575.12	19.699
575.32	19.858
575.51	20.988
575.71	19.618
575.90	19.542
576.10	19.227
576.29	18.559
576.49	18.692
576.68	19.051
576.87	20.399
577.07	20.589
577.26	20.238
577.46	20.656
577.65	20.332
577.85	20.790
578.04	21.109
578.24	20.708
578.43	21.594
578.63	21.625
578.82	22.093
579.02	21.438
579.21	20.824
579.41	22.155
579.60	21.624
579.79	20.813
579.99	19.857
580.18	19.889
580.38	20.911
580.57	21.154
580.77	20.554
580.96	20.904
581.16	20.032
581.35	20.115
581.54	19.047
581.74	19.433
581.93	20.578
582.13	22.172
582.32	23.382
582.52	23.042
582.71	22.101
582.90	24.105
583.10	23.281
583.29	23.753
583.49	23.477
583.68	23.601
583.88	23.487
584.07	23.047
584.26	21.734
584.46	20.532
584.65	19.812
584.85	20.002
585.04	20.164
585.23	19.047
585.43	19.555
585.62	20.143
585.82	21.014
586.01	20.143
586.20	19.453
586.40	21.116
586.59	20.869
586.79	22.590
586.98	23.674
587.17	21.839
587.37	22.458
587.56	22.417
587.76	21.537
587.95	20.969
588.14	21.745
588.34	23.490
588.53	22.099
588.73	22.907
588.92	21.471
589.11	22.102
589.31	22.682
589.50	22.861
589.69	22.985
589.89	24.020
590.08	24.035
590.28	24.732
590.47	23.792
590.66	24.200
590.86	22.845
591.05	23.450
591.24	21.725
591.44	21.662
591.63	22.356
591.82	22.268
592.02	20.874
592.21	21.361
592.41	20.055
592.60	20.626
592.79	22.178
592.99	23.280
593.18	22.399
593.37	22.788
593.57	23.938
593.76	22.382
593.95	22.539
594.15	24.379
594.34	24.291
594.53	25.113
594.73	24.304
594.92	22.426
595.11	21.884
595.31	21.573
595.50	20.460
595.69	18.807
595.89	19.928
596.08	20.435
596.27	20.034
596.47	18.918
596.66	18.892
596.85	18.649
597.05	18.898
597.24	19.276
597.43	19.647
597.62	20.121
597.82	20.185
598.01	20.707
598.20	20.423
598.40	20.490
598.59	19.892
598.78	20.288
598.98	21.117
599.17	21.755
599.36	20.274
599.55	19.583
599.75	21.419
599.94	22.125
600.13	21.782
600.33	21.488
600.52	19.788
600.71	20.906
600.91	19.525
601.10	19.794
601.29	20.198
601.48	21.583
601.68	22.312
601.87	20.048
602.06	20.085
602.25	19.385
602.45	19.944
602.64	21.785
602.83	21.546
603.03	21.925
603.22	22.582
603.41	22.144
603.60	22.559
603.80	23.129
603.99	23.642
604.18	24.050
604.37	24.874
604.57	24.843
604.76	23.651
604.95	23.403
605.14	23.611
605.34	23.144
605.53	22.797
605.72	22.853
605.91	23.334
606.11	23.852
606.30	23.568
606.49	24.473
606.68	23.356
606.88	24.146
607.07	26.172
607.26	25.058
607.45	23.487
607.65	24.092
607.84	24.477
608.03	23.882
608.22	22.289
608.41	22.631
608.61	20.739
608.80	21.085
608.99	19.751
609.18	17.586
609.38	18.979
609.57	21.429
609.76	20.382
609.95	20.030
610.14	19.798
610.34	21.562
610.53	21.316
610.72	21.369
610.91	22.766
611.10	24.039
611.30	25.779
611.49	25.492
611.68	24.689
611.87	25.385
612.06	26.135
612.26	25.627
612.45	24.831
612.64	24.394
612.83	23.641
613.02	23.623
613.22	22.721
613.41	20.933
613.60	21.289
613.79	21.549
613.98	22.148
614.17	20.243
614.37	21.211
614.56	20.125
614.75	20.763
614.94	21.496
615.13	20.583
615.32	22.240
615.52	22.534
615.71	21.838
615.90	19.519
616.09	18.184
616.28	18.826
616.47	18.389
616.67	19.015
616.86	18.504
617.05	19.664
617.24	18.384
617.43	18.463
617.62	20.050
617.82	20.141
618.01	21.027
618.20	22.267
618.39	23.681
618.58	23.944
618.77	24.082
618.96	24.469
619.16	24.311
619.35	25.811
619.54	25.838
619.73	25.387
619.92	25.062
620.11	26.057
620.30	26.016
620.49	25.247
620.69	24.539
620.88	25.535
621.07	23.936
621.26	23.544
621.45	23.689
621.64	21.296
621.83	20.924
622.02	22.173
622.22	21.171
622.41	21.831
622.60	22.641
622.79	23.874
622.98	24.926
623.17	26.012
623.36	25.047
623.55	23.017
623.74	24.144
623.93	22.696
624.13	22.094
624.32	21.407
624.51	19.337
624.70	18.654
624.89	18.689
625.08	16.873
625.27	17.054
625.46	16.623
625.65	16.625
625.84	17.480
626.03	18.211
626.23	17.712
626.42	18.929
626.61	19.256
626.80	18.662
626.99	17.734
627.18	17.986
627.37	17.766
627.56	18.411
627.75	18.537
627.94	18.638
628.13	18.905
628.32	19.132
628.51	17.365
628.70	17.436
628.89	17.114
629.09	19.225
629.28	19.780
629.47	20.817
629.66	21.374
629.85	21.863
630.04	20.136
630.23	20.556
630.42	19.533
630.61	20.832
630.80	21.239
630.99	22.031
631.18	18.917
631.37	18.124
631.56	17.173
631.75	17.530
631.94	17.466
632.13	18.367
632.32	16.995
632.51	17.539
632.70	17.083
632.89	18.840
633.08	18.452
633.27	19.116
633.46	18.801
633.65	19.784
633.84	19.398
634.03	20.624
634.22	21.288
634.41	22.200
634.60	23.249
634.79	23.522
634.99	23.501
635.18	23.018
635.37	22.918
635.56	23.700
635.75	21.971
635.94	21.161
636.13	20.608
636.32	19.354
636.51	19.554
636.69	18.792
636.88	18.529
637.07	17.437
637.26	17.821
637.45	18.200
637.64	18.412
637.83	18.473
638.02	17.583
638.21	17.642
638.40	19.152
638.59	18.030
638.78	18.104
638.97	18.037
639.16	17.247
639.35	17.204
639.54	16.654
639.73	16.338
639.92	18.309
640.11	19.886
640.30	19.701
640.49	20.153
640.68	21.570
640.87	21.267
641.06	20.681
641.25	21.692
641.44	19.327
641.63	18.141
641.82	17.766
642.01	16.900
642.20	15.016
642.39	14.893
642.58	14.529
642.76	12.264
642.95	13.510
643.14	13.329
643.33	12.154
643.52	14.912
643.71	16.685
643.90	16.917
644.09	17.448
644.28	18.493
644.47	18.886
644.66	17.788
644.85	20.246
645.04	20.295
645.23	20.043
645.41	20.885
645.60	19.434
645.79	19.484
645.98	19.888
646.17	18.593
646.36	18.798
646.55	16.863
646.74	16.976
646.93	15.431
647.12	12.201
647.31	14.737
647.49	14.445
647.68	18.139
647.87	18.086
648.06	20.109
648.25	19.093
648.44	21.753
648.63	23.221
648.82	24.726
649.01	25.773
649.20	24.034
649.38	21.766
649.57	22.536
649.76	19.831
649.95	19.038
650.14	16.194
650.33	17.343
650.52	15.262
650.71	14.954
650.89	12.513
651.08	10.833
651.27	15.962
651.46	18.448
651.65	17.219
651.84	18.450
652.03	19.450
652.22	18.951
652.40	19.518
652.59	17.621
652.78	18.698
652.97	20.183
653.16	21.706
653.35	21.070
653.54	20.014
653.72	18.362
653.91	17.529
654.10	17.583
654.29	19.830
654.48	21.898
654.67	24.400
654.85	23.736
655.04	23.696
655.23	23.607
655.42	24.495
655.61	25.230
655.80	25.937
655.98	26.458
656.17	26.886
656.36	26.002
656.55	24.036
656.74	23.509
656.93	22.670
657.11	22.156
657.30	21.928
657.49	19.808
657.68	19.289
657.87	21.010
658.06	18.895
658.24	19.735
658.43	19.012
658.62	18.122
658.81	18.576
659.00	20.161
659.18	20.280
659.37	20.006
659.56	20.077
659.75	20.523
659.94	18.805
660.12	19.957
660.31	20.227
660.50	18.914
660.69	20.452
660.88	19.862
661.06	19.780
661.25	20.322
661.44	21.196
661.63	23.277
661.81	23.014
662.00	24.666
662.19	23.948
662.38	21.931
662.57	23.896
662.75	23.253
662.94	24.156
663.13	24.418
663.32	24.107
663.50	22.646
663.69	19.744
663.88	19.956
664.07	19.640
664.25	19.227
664.44	18.149
664.63	16.951
664.82	15.642
665.00	12.735
665.19	9.316
665.38	10.030
665.57	12.893
665.75	14.498
665.94	15.419
666.13	14.634
666.32	16.898
666.50	18.104
666.69	19.796
666.88	20.195
667.07	21.358
667.25	24.768
667.44	24.288
667.63	21.918
667.82	20.794
668.00	18.163
668.19	21.212
668.38	21.783
668.56	20.490
668.75	20.359
668.94	20.626
669.13	21.368
669.31	20.593
669.50	20.204
669.69	20.748
669.88	21.344
670.06	21.295
670.25	20.257
670.44	18.874
670.62	20.128
670.81	20.816
671.00	20.853
671.18	21.303
671.37	21.429
671.56	20.518
671.75	20.459
671.93	21.004
672.12	22.527
672.31	22.396
672.49	23.437
672.68	23.229
672.87	23.805
673.05	26.117
673.24	24.494
673.43	24.433
673.61	26.057
673.80	26.719
673.99	26.349
674.17	28.247
674.36	26.513
674.55	24.127
674.73	23.965
674.92	22.125
675.11	19.550
675.29	20.848
675.48	20.817
675.67	18.730
675.85	16.625
676.04	15.654
676.23	15.240
676.41	16.078
676.60	19.365
676.79	21.692
676.97	21.724
677.16	21.318
677.35	23.982
677.53	24.315
677.72	24.843
677.91	25.078
678.09	26.356
678.28	24.726
678.47	23.214
678.65	20.646
678.84	19.113
679.02	19.852
679.21	22.302
679.40	18.341
679.58	18.739
679.77	20.594
679.96	21.749
680.14	19.509
680.33	21.464
680.51	21.661
680.70	23.169
680.89	23.601
681.07	22.389
681.26	22.162
681.44	21.209
681.63	21.012
681.82	21.327
682.00	23.853
682.19	25.805
682.38	24.184
682.56	22.796
682.75	22.486
682.93	22.546
683.12	23.973
683.31	21.650
683.49	23.448
683.68	23.771
683.86	21.521
684.05	19.473
684.23	18.663
684.42	17.065
684.61	20.019
684.79	19.521
684.98	19.386
685.16	17.481
685.35	17.132
685.54	16.024
685.72	14.499
685.91	15.342
686.09	15.758
686.28	16.465
686.46	19.121
686.65	19.255
686.83	17.821
687.02	18.436
687.21	19.213
687.39	21.704
687.58	22.873
687.76	22.773
687.95	24.171
688.13	20.958
688.32	20.232
688.50	18.858
688.69	19.314
688.88	19.937
689.06	18.221
689.25	19.924
689.43	20.839
689.62	20.506
689.80	21.150
689.99	19.762
690.17	21.038
690.36	23.204
690.54	24.329
690.73	25.308
690.91	26.851
691.10	27.617
691.29	27.032
691.47	28.152
691.66	30.211
691.84	30.614
692.03	30.948
692.21	31.550
692.40	31.147
692.58	32.787
692.77	29.058
692.95	27.397
693.14	28.335
693.32	27.339
693.51	24.368
693.69	24.467
693.88	23.394
694.06	23.041
694.25	22.933
694.43	22.259
694.62	19.548
694.80	19.641
694.99	20.015
695.17	18.997
695.36	20.328
695.54	20.165
695.73	19.309
695.91	19.180
696.10	20.643
696.28	19.952
696.47	18.277
696.65	16.545
696.84	18.094
697.02	19.527
697.20	19.903
697.39	17.784
697.57	16.410
697.76	14.339
697.94	13.408
698.13	13.965
698.31	15.227
698.50	16.701
698.68	17.615
698.87	16.128
699.05	12.965
699.24	13.982
699.42	16.019
699.60	16.604
699.79	19.518
699.97	21.421
700.16	19.872
700.34	18.183
700.53	19.484
700.71	21.804
700.90	23.356
701.08	26.834
701.26	25.964
701.45	26.285
701.63	27.211
701.82	24.121
702.00	20.766
702.19	23.552
702.37	25.214
702.55	23.199
702.74	19.408
702.92	19.841
703.11	21.021
703.29	21.503
703.48	21.308
703.66	22.292
703.84	25.852
704.03	29.028
704.21	26.992
704.40	25.467
704.58	25.508
704.76	23.351
704.95	25.919
705.13	23.167
705.32	21.873
705.50	21.889
705.68	20.662
705.87	18.721
706.05	14.846
706.24	14.977
706.42	19.855
706.60	18.740
706.79	26.068
706.97	24.100
707.15	25.235
707.34	24.783
707.52	22.367
707.71	25.179
707.89	23.278
708.07	29.177
708.26	29.731
708.44	27.855
708.62	27.347
708.81	26.115
708.99	22.743
709.18	22.265
709.36	25.189
709.54	25.650
709.73	22.459
709.91	27.327
710.09	26.875
710.28	27.887
710.46	26.049
710.64	25.488
710.83	22.699
711.01	26.120
711.19	26.364
711.38	26.045
711.56	26.650
711.74	28.670
711.93	26.761
712.11	24.176
712.30	21.728
712.48	21.634
712.66	21.899
712.85	22.481
713.03	20.229
713.21	19.070
713.39	18.790
713.58	19.372
713.76	17.034
713.94	18.266
714.13	18.834
714.31	19.994
714.49	18.918
714.68	18.806
714.86	17.908
715.04	20.772
715.23	20.199
715.41	19.686
715.59	19.805
715.78	21.490
715.96	18.276
716.14	15.945
716.32	15.808
716.51	18.068
716.69	21.438
716.87	20.053
717.06	18.581
717.24	19.904
717.42	17.824
717.61	15.899
717.79	16.576
717.97	18.513
718.15	20.339
718.34	22.036
718.52	23.625
718.70	25.860
718.88	28.107
719.07	27.359
719.25	25.250
719.43	27.766
719.62	31.252
719.80	29.845
719.98	29.336
720.16	29.148
720.35	28.130
720.53	30.672
720.71	23.622
720.89	26.717
721.08	29.611
721.26	35.993
721.44	35.429
721.62	37.171
721.81	36.693
721.99	38.563
722.17	39.755
722.35	38.285
722.54	34.811
722.72	40.104
722.90	36.757
723.08	29.182
723.27	26.824
723.45	22.990
723.63	20.773
723.81	23.316
724.00	22.868
724.18	23.108
724.36	24.173
724.54	18.123
724.72	14.310
724.91	12.400
725.09	16.927
725.27	16.921
725.45	18.257
725.64	12.717
725.82	13.135
726.00	15.385
726.18	14.604
726.36	13.271
726.55	18.451
726.73	22.066
726.91	25.840
727.09	25.295
727.27	24.715
727.46	28.442
727.64	31.806
727.82	29.263
728.00	28.857
728.18	34.889
728.37	37.964
728.55	37.169
728.73	36.393
728.91	35.724
729.09	38.642
729.27	36.961
729.46	34.215
729.64	34.230
729.82	34.560
730.00	34.689
730.18	28.259
730.36	24.120
730.55	23.959
730.73	19.776
730.91	19.394
731.09	18.428
731.27	19.682
731.45	23.500
731.64	24.124
731.82	25.958
732.00	21.651
732.18	21.083
732.36	22.149
732.54	24.917
732.73	28.389
732.91	26.255
733.09	27.218
733.27	26.211
733.45	25.956
733.63	23.598
733.81	24.760
734.00	26.271
734.18	30.804
734.36	29.879
734.54	28.465
734.72	32.549
734.90	36.820
735.08	32.170
735.26	31.752
735.45	29.610
735.63	31.060
735.81	28.473
735.99	30.837
736.17	27.443
736.35	35.553
736.53	39.259
736.71	35.737
736.89	30.259
737.08	33.458
737.26	37.046
737.44	38.730
737.62	40.593
737.80	41.034
737.98	42.837
738.16	47.579
738.34	42.729
738.52	42.216
738.70	36.649
738.89	40.473
739.07	46.194
739.25	45.595
739.43	44.177
739.61	44.092
739.79	40.384
739.97	40.118
740.15	39.110
740.33	39.117
740.51	30.807
740.69	33.438
740.87	28.495
741.06	22.485
741.24	22.421
741.42	23.543
741.60	25.395
741.78	27.379
741.96	26.456
742.14	24.436
742.32	25.971
742.50	34.679
742.68	39.003
742.86	41.676
743.04	41.440
743.22	41.379
743.40	37.646
743.58	37.405
743.76	42.326
743.94	40.584
744.12	43.523
744.30	47.278
744.49	44.255
744.67	44.822
744.85	44.521
745.03	50.628
745.21	50.722
745.39	51.655
745.57	50.223
745.75	44.276
745.93	40.067
746.11	38.309
746.29	35.668
746.47	35.935
746.65	32.310
746.83	35.468
747.01	33.609
747.19	35.582
747.37	36.704
747.55	41.723
747.73	40.364
747.91	48.008
748.09	47.963
748.27	41.542
748.45	47.600
748.63	47.736
748.81	49.027
748.99	46.372
749.17	41.856
749.35	35.221
749.53	29.679
749.71	27.845
749.89	25.081
750.07	20.934
750.25	23.472
750.43	15.402
750.61	16.429
750.79	14.050
750.97	15.345
751.15	18.973
751.33	22.398
751.51	24.730
751.69	30.711
751.87	28.048
752.05	31.765
752.23	34.553
752.40	38.264
752.58	35.998
752.76	38.465
752.94	38.738
753.12	39.859
753.30	40.377
753.48	41.236
753.66	43.042
753.84	44.982
754.02	42.249
754.20	39.917
754.38	38.477
754.56	39.432
754.74	38.836
754.92	36.507
755.10	33.193
755.28	31.589
755.46	24.899
755.64	19.026
755.81	16.225
755.99	14.406
756.17	14.542
756.35	14.411
756.53	15.642
756.71	13.612
756.89	17.767
757.07	16.750
757.25	13.412
757.43	15.789
757.61	17.214
757.79	14.832
757.96	18.826
758.14	21.262
758.32	21.006
758.50	20.598
758.68	23.803
758.86	25.953
759.04	30.381
759.22	35.771
759.40	35.508
759.58	39.005
759.75	38.491
759.93	37.481
760.11	37.837
760.29	37.309
760.47	35.013
760.65	31.093
760.83	25.584
761.01	23.181
761.19	20.046
761.36	19.922
761.54	16.828
761.72	21.743
761.90	17.908
762.08	14.007
762.26	12.932
762.44	19.538
762.62	21.547
762.79	25.939
762.97	24.549
763.15	22.421
763.33	22.822
763.51	22.061
763.69	20.625
763.87	22.828
764.04	24.991
764.22	24.865
764.40	22.686
764.58	26.382
764.76	24.592
764.94	25.138
765.11	30.170
765.29	34.698
765.47	34.692
765.65	35.047
765.83	38.589
766.01	37.454
766.18	39.162
766.36	37.790
766.54	32.230
766.72	32.649
766.90	32.476
767.08	31.021
767.25	26.826
767.43	27.739
767.61	23.269
767.79	21.915
767.97	20.274
768.14	19.266
768.32	24.969
768.50	21.424
768.68	14.667
768.86	16.893
769.03	14.899
769.21	25.016
769.39	23.306
769.57	27.637
769.75	26.839
769.92	28.129
770.10	32.403
770.28	23.921
770.46	27.528
770.64	36.777
770.81	36.443
770.99	42.049
771.17	33.906
771.35	36.216
771.53	40.396
771.70	43.265
771.88	47.880
772.06	46.282
772.24	51.131
772.41	50.467
772.59	46.004
772.77	52.171
772.95	37.980
773.12	43.119
773.30	44.909
773.48	36.343
773.66	34.288
773.84	40.166
774.01	35.269
774.19	39.712
774.37	45.919
774.55	40.779
774.72	37.488
774.90	45.987
775.08	47.655
775.25	47.313
775.43	62.644
775.61	53.646
775.79	41.351
775.96	42.468
776.14	35.135
776.32	30.192
776.50	22.052
776.67	22.004
776.85	18.341
777.03	11.135
777.21	-0.120
777.38	-1.829
777.56	7.710
777.74	6.758
777.91	13.833
778.09	17.530
778.27	21.641
778.45	39.019
778.62	37.757
778.80	47.069
778.98	52.401
779.15	54.279
779.33	51.890
779.51	50.903
779.68	51.553
779.86	53.733
780.04	57.600
780.22	52.325
780.39	52.071
780.57	59.571
780.75	58.110
780.92	56.229
781.10	49.187
781.28	42.376
781.45	38.973
781.63	44.830
781.81	40.273
781.98	27.961
782.16	31.004
782.34	26.561
782.51	18.077
782.69	12.680
782.87	11.508
783.04	28.598
783.22	40.645
783.40	41.286
783.57	37.041
783.75	43.517
783.93	53.327
784.10	58.774
784.28	59.853
784.46	63.724
784.63	77.702
784.81	79.699
784.99	74.977
785.16	69.503
785.34	69.145
785.52	78.466
785.69	76.794
785.87	74.827
786.04	68.011
786.22	61.974
786.40	64.605
786.57	55.359
786.75	47.146
786.93	46.932
787.10	43.768
787.28	44.128
787.45	35.080
787.63	39.522
787.81	41.624
787.98	42.461
788.16	40.422
788.34	34.263
788.51	37.812
788.69	41.717
788.86	40.383
789.04	41.076
789.22	45.914
789.39	36.700
789.57	30.278
789.74	31.133
789.92	36.720
790.10	49.208
790.27	47.939
790.45	49.513
790.62	45.712
790.80	51.054
790.97	54.702
791.15	51.243
791.33	57.570
791.50	49.954
791.68	52.860
791.85	51.597
792.03	38.994
792.21	50.764
792.38	48.364
792.56	52.448
792.73	41.183
792.91	45.667
793.08	37.860
793.26	34.460
793.44	38.387
793.61	47.740
793.79	57.981
793.96	62.725
794.14	43.612
794.31	28.279
794.49	27.151
794.66	41.497
794.84	42.130
795.01	55.063
795.19	76.296
795.37	74.434
795.54	54.745
795.72	65.019
795.89	63.443
796.07	60.576
796.24	66.334
796.42	67.393
796.59	57.923
796.77	52.050
796.94	55.409
797.12	41.553
797.29	49.668
797.47	69.713
797.64	51.030
797.82	54.719
797.99	53.236
798.17	54.004
798.35	56.067
798.52	63.041
798.70	68.655
798.87	49.374
799.05	46.571
799.22	41.268
799.40	32.834
799.57	38.639
799.75	44.329
799.92	46.599
800.10	38.415
800.27	46.022
800.45	51.222
800.62	60.382
800.79	68.757
800.97	77.209
801.14	78.453
801.32	77.333
801.49	82.411
801.67	76.694
801.84	83.165
802.02	90.832
802.19	92.947
802.37	79.429
802.54	74.107
802.72	63.291
802.89	50.731
803.07	53.238
803.24	58.264
803.42	62.941
803.59	64.114
803.76	60.421
803.94	63.294
804.11	66.283
804.29	71.454
804.46	64.004
804.64	63.146
804.81	72.087
804.99	69.908
805.16	64.313
805.34	52.233
805.51	47.725
805.68	43.858
805.86	44.196
806.03	23.847
806.21	29.647
806.38	35.549
806.56	57.305
806.73	58.017
806.90	63.870
807.08	80.330
807.25	77.526
807.43	91.438
807.60	87.130
807.78	73.745
807.95	68.758
808.12	70.813
808.30	78.812
808.47	70.734
808.65	74.098
808.82	64.183
808.99	42.507
809.17	42.922
809.34	43.075
809.52	36.783
809.69	50.255
809.86	66.205
810.04	59.286
810.21	63.498
810.39	65.250
810.56	60.000
810.73	52.810
810.91	55.172
811.08	55.650
811.25	67.090
811.43	76.074
811.60	65.567
811.78	63.684
811.95	59.448
812.12	44.227
812.30	42.134
812.47	34.751
812.64	41.313
812.82	51.662
812.99	53.596
813.17	45.208
813.34	39.312
813.51	42.610
813.69	42.540
813.86	41.972
814.03	41.696
814.21	50.050
814.38	54.927
814.55	55.914
814.73	42.326
814.90	48.420
815.07	50.324
815.25	48.433
815.42	51.317
815.59	48.667
815.77	45.346
815.94	58.060
816.11	59.327
816.29	60.800
816.46	56.011
816.63	64.098
816.81	76.417
816.98	60.000
817.15	51.944
817.33	42.914
817.50	45.293
817.67	53.944
817.85	57.124
818.02	58.788
818.19	69.388
818.37	68.045
818.54	79.274
818.71	72.248
818.88	76.693
819.06	85.802
819.23	78.010
819.40	74.079
819.58	61.433
819.75	57.269
819.92	59.492
820.09	60.858
820.27	49.924
820.44	38.706
820.61	24.230
820.79	23.971
820.96	14.759
821.13	15.332
821.30	24.662
821.48	30.194
821.65	22.098
821.82	12.232
822.00	10.855
822.17	14.523
822.34	15.916
822.51	23.169
822.69	22.935
822.86	28.083
823.03	25.565
823.20	22.006
823.38	23.027
823.55	23.600
823.72	22.067
823.89	20.052
824.07	20.265
824.24	19.073
824.41	15.359
824.58	15.746
824.76	11.761
824.93	14.678
825.10	17.942
825.27	17.603
825.45	18.239
825.62	24.183
825.79	24.211
825.96	24.863
826.13	26.388
826.31	31.013
826.48	27.471
826.65	28.156
826.82	26.230
827.00	27.774
827.17	28.213
827.34	30.306
827.51	28.737
827.68	28.416
827.86	28.079
828.03	27.554
828.20	26.323
828.37	31.176
828.54	34.520
828.72	36.828
828.89	32.727
829.06	35.789
829.23	34.710
829.40	33.352
829.58	33.410
829.75	31.703
829.92	34.052
830.09	31.827
830.26	31.572
830.44	34.230
830.61	33.433
830.78	32.357
830.95	26.829
831.12	19.746
831.29	24.910
831.47	41.217
831.64	53.279
831.81	63.320
831.98	59.211
832.15	65.576
832.32	55.970
832.50	72.424
832.67	76.005
832.84	68.461
833.01	75.638
833.18	76.366
833.35	65.755
833.53	55.232
833.70	49.048
833.87	54.094
834.04	51.264
834.21	51.782
834.38	42.317
834.55	44.721
834.72	48.651
834.90	45.749
835.07	43.672
835.24	44.776
835.41	53.553
835.58	50.772
835.75	44.862
835.92	44.979
836.10	48.915
836.27	46.532
836.44	39.580
836.61	36.878
836.78	40.233
836.95	43.221
837.12	40.468
837.29	42.154
837.46	41.258
837.64	48.600
837.81	45.388
837.98	35.461
838.15	19.326
838.32	24.694
838.49	20.274
838.66	22.026
838.83	20.711
839.00	16.859
839.17	17.805
839.34	20.722
839.52	4.635
839.69	16.986
839.86	29.880
840.03	44.476
840.20	41.997
840.37	49.017
840.54	56.949
840.71	49.301
840.88	59.259
841.05	52.576
841.22	62.203
841.39	64.158
841.56	63.387
841.74	59.508
841.91	70.526
842.08	81.203
842.25	90.430
842.42	100.983
842.59	123.326
842.76	110.345
842.93	114.437
843.10	121.893
843.27	112.799
843.44	97.633
843.61	117.153
843.78	102.632
843.95	102.600
844.12	122.066
844.29	101.546
844.46	119.760
844.63	122.521
844.80	105.819
844.97	115.312
845.14	135.565
845.31	188.000
845.48	110.714
845.65	130.348
845.82	254.140
845.99	159.364
846.16	210.976
846.33	194.792
846.50	340.000
846.67	-5200.000
846.85	814.706
847.02	260.684
847.19	150.962
847.36	233.962
847.53	871.053
847.70	215.672
847.87	613.636
848.03	222.330
848.20	143.062
848.37	106.989
848.54	98.750
848.71	116.667
848.88	294.175
849.05	257.252
849.22	336.364
849.39	217.778
849.56	345.455
849.73	3750.000
849.90	212.766
850.07	-115.714
850.24	-381.250
850.41	351.163
850.58	125.641
850.75	98.507
850.92	137.671
851.09	229.310
851.26	-1050.000
851.43	210.145
851.60	225.325
851.77	3369.231
851.94	457.143
852.11	513.559
852.28	-316.842
852.45	-549.315
852.62	-317.308
852.79	-205.325
852.96	-437.681
853.12	-252.500
853.29	-151.327
853.46	-63.333
853.63	-113.699
853.80	-118.571
853.97	-75.161
854.14	-99.288
854.31	-143.396
854.48	-292.381
854.65	-261.261
854.82	858.491
854.99	420.536
855.16	165.086
855.33	155.652
855.49	138.164
855.66	133.333
855.83	113.060
856.00	49.679
856.17	-21.429
856.34	-40.000
856.51	-45.771
856.68	-206.494
856.85	-88.043
857.02	-608.333
857.18	31.492
857.35	98.901
857.52	169.118
857.69	188.889
857.86	272.857
858.03	270.248
858.20	-548.980
858.37	-464.063
858.54	1456.000
858.70	337.190
858.87	524.074
859.04	-630.233
859.21	1115.152
859.38	1864.706
859.55	-681.818
859.72	688.060
859.89	427.731
860.05	205.611
860.22	178.624
860.39	200.000
860.56	186.350
860.73	182.870
860.90	176.586
861.07	158.425
861.23	181.967
861.40	155.871
861.57	161.557
861.74	221.262
861.91	293.274
862.08	1512.903
862.24	33500.000
862.41	-335.644
862.58	-230.137
862.75	-777.551
862.92	-739.216
863.09	613.115
863.25	-4285.714
863.42	505.682
863.59	356.604
863.76	290.400
863.93	217.734
864.10	354.167
864.26	519.355
864.43	189.051
864.60	228.205
864.77	197.753
864.94	1228.571
865.10	267.176
865.27	255.814
865.44	168.712
865.61	125.714
865.78	118.935
865.94	59.766
866.11	75.801
866.28	125.600
866.45	156.875
866.62	192.262
866.78	118.027
866.95	233.553
867.12	198.707
867.29	163.066
867.46	198.658
867.62	160.614
867.79	172.176
867.96	147.706
868.13	152.220
868.29	130.983
868.46	126.407
868.63	125.000
868.80	121.068
868.97	113.851
869.13	129.482
869.30	113.692
869.47	197.717
869.64	239.877
869.80	303.817
869.97	201.429
870.14	228.082
870.31	233.117
870.47	-2107.143
870.64	24200.000
870.81	-6450.000
870.98	1107.692
871.14	-5320.000
871.31	302.564
871.48	286.726
871.65	208.681
871.81	192.429
871.98	203.767
872.15	244.534
872.31	231.481
872.48	231.852
872.65	169.965
872.82	279.433
872.98	117.647
873.15	103.543
873.32	69.957
873.48	78.423
873.65	74.439
873.82	155.556
873.99	100.448
874.15	67.636
874.32	53.797
874.49	78.926
874.65	73.228
874.82	103.462
874.99	130.364
875.16	213.303
875.32	302.113
875.49	288.679
875.66	226.705
875.82	187.705
875.99	270.149
876.16	-30000.000
876.32	6800.000
876.49	-322.222
876.66	5066.667
876.82	-500.000
876.99	-340.909
877.16	-411.429
877.32	447.619
877.49	144.737
877.66	-69.697
877.82	30.851
877.99	85.657
878.16	109.507
878.32	92.647
878.49	75.000
878.66	82.427
878.82	75.816
878.99	64.117
879.16	99.160
879.32	69.737
879.49	76.200
879.66	69.318
879.82	44.898
879.99	-14.419
880.16	-124.444
880.32	26.496
880.49	106.494
880.65	-761.538
880.82	391.803
880.99	51.899
881.15	1350.000
881.32	228.395
881.49	149.782
881.65	245.714
881.82	154.717
881.98	109.091
882.15	114.634
882.32	78.814
882.48	67.376
882.65	55.382
882.82	71.722
882.98	65.698
883.15	52.519
883.31	45.000
883.48	26.143
883.65	20.677
883.81	18.619
883.98	17.774
884.14	14.512
884.31	11.632
884.48	10.432
884.64	15.048
884.81	24.014
884.97	24.932
885.14	21.744
885.30	32.965
885.47	39.800
885.64	48.161
885.80	46.065
885.97	33.998
886.13	32.373
886.30	53.333
886.47	46.813
886.63	46.394
886.80	50.774
886.96	46.823
887.13	46.629
887.29	33.136
887.46	26.698
887.62	19.759
887.79	34.828
887.96	40.281
888.12	-460.000
888.29	84.211
888.45	-17.308
888.62	50.495
888.78	-22.727
>>>>>End Processed Spectral Data<<<<<
