SpectraSuite Data File
++++++++++++++++++++++++++++++++++++
Date: Mon Jan 12 10:55:26 EST 2009
User: Lex
Dark Spectrum Present: Yes
Reference Spectrum Present: Yes
Number of Sampled Component Spectra: 1
Spectrometers: USB4E03001
Integration Time (usec): 100000 (USB4E03001)
Spectra Averaged: 5 (USB4E03001)
Boxcar Smoothing: 5 (USB4E03001)
Correct for Electrical Dark: No (USB4E03001)
Strobe/Lamp Enabled: Yes (USB4E03001)
Correct for Detector Non-linearity: No (USB4E03001)
Correct for Stray Light: No (USB4E03001)
Number of Pixels in Processed Spectrum: 3648
>>>>>Begin Processed Spectral Data<<<<<
177.57	-136.667
177.79	-136.667
178.01	-136.667
178.23	550.000
178.45	-79.661
178.66	251.974
178.88	214.925
179.10	160.223
179.32	159.406
179.54	106.701
179.76	114.797
179.98	137.741
180.20	150.000
180.42	128.889
180.64	290.217
180.86	776.923
181.08	219.658
181.30	224.084
181.52	317.518
181.74	740.000
181.96	-2194.737
182.18	-617.143
182.40	-450.685
182.62	-1905.556
182.84	-606.667
183.06	3093.333
183.28	647.761
183.50	-354.762
183.72	-457.143
183.94	-485.714
184.16	319.737
184.38	-382.353
184.60	-531.373
184.82	760.465
185.04	8350.000
185.26	661.538
185.48	-1350.000
185.69	-194.667
185.91	-401.613
186.13	600.000
186.35	709.836
186.57	-924.528
186.79	373.485
187.01	690.000
187.23	-932.609
187.45	-303.774
187.67	-231.159
187.89	-464.516
188.11	677.922
188.33	1300.000
188.55	-619.298
188.77	-3433.333
188.99	315.054
189.21	237.600
189.42	169.268
189.64	279.839
189.86	400.000
190.08	317.424
190.30	375.294
190.52	7425.000
190.74	265.426
190.96	419.697
191.18	-578.571
191.40	-83.060
191.62	-50.336
191.84	-68.847
192.06	-75.658
192.27	-83.117
192.49	-70.614
192.71	-475.439
192.93	-183.721
193.15	-9.901
193.37	-72.973
193.59	-196.522
193.81	-333.333
194.03	-358.904
194.25	-133.043
194.47	3700.000
194.68	-317.910
194.90	-252.000
195.12	-124.812
195.34	692.105
195.56	584.722
195.78	798.276
196.00	409.000
196.22	248.718
196.44	374.830
196.66	449.219
196.87	612.766
197.09	485.714
197.31	551.304
197.53	-4300.000
197.75	7816.667
197.97	1700.000
198.19	-823.913
198.41	-691.176
198.63	-254.237
198.84	-1066.667
199.06	-299.138
199.28	-130.159
199.50	-158.889
199.72	-263.190
199.94	-841.509
200.16	-142.910
200.38	-139.527
200.59	-208.482
200.81	-150.534
201.03	-236.500
201.25	-162.162
201.47	-722.222
201.69	867.606
201.91	372.414
202.13	213.580
202.34	276.440
202.56	162.207
202.78	133.048
203.00	116.863
203.22	49.505
203.44	40.636
203.66	71.025
203.87	57.485
204.09	83.621
204.31	100.000
204.53	-572.414
204.75	502.381
204.97	377.778
205.19	1212.500
205.40	2770.000
205.62	1566.667
205.84	538.710
206.06	-2200.000
206.28	372.662
206.50	852.308
206.71	318.919
206.93	204.444
207.15	251.744
207.37	309.483
207.59	283.333
207.81	198.298
208.02	177.083
208.24	142.298
208.46	110.951
208.68	55.589
208.90	42.250
209.12	74.662
209.33	130.131
209.55	85.976
209.77	124.791
209.99	109.286
210.21	128.972
210.43	162.264
210.64	215.054
210.86	188.104
211.08	748.750
211.30	1181.633
211.52	759.722
211.74	518.367
211.95	1001.887
212.17	476.744
212.39	402.778
212.61	186.641
212.83	166.495
213.04	435.593
213.26	415.584
213.48	269.600
213.70	217.089
213.92	147.619
214.13	163.981
214.35	170.940
214.57	225.989
214.79	-3463.636
215.01	-322.353
215.22	-1465.625
215.44	426.772
215.66	603.571
215.88	322.759
216.10	1089.474
216.31	-760.317
216.53	-212.500
216.75	-121.302
216.97	-96.861
217.19	-231.818
217.40	-1607.143
217.62	-488.889
217.84	-216.667
218.06	-178.947
218.27	-154.211
218.49	-291.589
218.71	-1223.529
218.93	-1093.333
219.15	-3170.000
219.36	-411.667
219.58	-418.367
219.80	3685.714
220.02	113.710
220.23	88.066
220.45	88.608
220.67	76.847
220.89	70.186
221.11	192.500
221.32	1980.000
221.54	-57.759
221.76	1475.000
221.98	273.239
222.19	-11.111
222.41	-171.429
222.63	-70.225
222.85	-106.410
223.06	-261.111
223.28	-162.500
223.50	-57.732
223.72	-204.545
223.93	237.500
224.15	319.403
224.37	-631.429
224.59	-2415.385
224.80	-748.718
225.02	-275.862
225.24	-129.487
225.46	-36.869
225.67	-73.988
225.89	2016.667
226.11	289.041
226.33	306.154
226.54	217.308
226.76	111.215
226.98	397.059
227.20	287.879
227.41	120.779
227.63	149.254
227.85	121.190
228.06	92.010
228.28	94.737
228.50	72.024
228.72	65.045
228.93	77.473
229.15	68.923
229.37	43.621
229.59	41.375
229.80	40.723
230.02	42.634
230.24	54.152
230.45	61.790
230.67	63.584
230.89	65.950
231.11	83.978
231.32	69.257
231.54	49.409
231.76	64.092
231.97	97.688
232.19	130.595
232.41	124.731
232.63	113.478
232.84	76.970
233.06	92.151
233.28	124.695
233.49	81.957
233.71	79.817
233.93	80.000
234.14	80.882
234.36	61.224
234.58	46.706
234.79	39.394
235.01	55.347
235.23	62.530
235.45	57.761
235.66	39.208
235.88	53.112
236.10	58.833
236.31	67.526
236.53	80.612
236.75	104.902
236.96	238.095
237.18	233.333
237.40	35.849
237.61	74.000
237.83	250.000
238.05	238.462
238.26	438.235
238.48	-970.588
238.70	-29.661
238.91	-40.991
239.13	4.405
239.35	-26.117
239.56	-79.365
239.78	-1109.091
240.00	-95.604
240.21	-66.667
240.43	56.584
240.65	65.183
240.86	67.412
241.08	68.490
241.30	53.925
241.51	46.417
241.73	56.452
241.95	49.849
242.16	50.321
242.38	46.872
242.60	43.205
242.81	39.774
243.03	35.199
243.25	32.974
243.46	32.221
243.68	36.898
243.90	36.690
244.11	34.021
244.33	33.188
244.55	29.454
244.76	32.987
244.98	39.798
245.19	35.210
245.41	30.523
245.63	30.775
245.84	27.291
246.06	23.648
246.28	22.125
246.49	22.654
246.71	21.622
246.92	21.857
247.14	22.129
247.36	20.339
247.57	25.444
247.79	27.353
248.01	27.470
248.22	35.282
248.44	34.092
248.65	35.204
248.87	31.930
249.09	36.534
249.30	35.903
249.52	38.583
249.74	40.283
249.95	38.800
250.17	45.602
250.38	45.464
250.60	42.072
250.82	48.138
251.03	45.354
251.25	51.733
251.46	55.150
251.68	62.926
251.90	65.282
252.11	51.794
252.33	53.373
252.54	42.090
252.76	50.379
252.98	49.101
253.19	45.668
253.41	51.506
253.62	49.745
253.84	41.328
254.06	39.082
254.27	22.222
254.49	42.621
254.70	42.692
254.92	55.692
255.14	31.000
255.35	19.706
255.57	25.806
255.78	24.350
256.00	27.677
256.21	29.056
256.43	29.592
256.65	27.970
256.86	29.456
257.08	21.828
257.29	14.910
257.51	34.213
257.72	35.509
257.94	27.242
258.16	19.115
258.37	17.230
258.59	13.956
258.80	16.608
259.02	20.462
259.23	16.545
259.45	13.521
259.66	14.343
259.88	12.351
260.10	11.473
260.31	14.368
260.53	16.358
260.74	15.307
260.96	18.150
261.17	16.680
261.39	16.303
261.60	13.441
261.82	17.945
262.04	21.931
262.25	21.231
262.47	29.882
262.68	28.868
262.90	27.632
263.11	33.046
263.33	25.878
263.54	26.457
263.76	33.919
263.97	34.800
264.19	36.045
264.40	26.972
264.62	33.727
264.84	22.379
265.05	27.535
265.27	24.750
265.48	26.125
265.70	26.553
265.91	21.078
266.13	11.781
266.34	13.922
266.56	11.053
266.77	12.974
266.99	2.311
267.20	11.431
267.42	10.367
267.63	8.298
267.85	3.117
268.06	0.373
268.28	-0.823
268.49	3.865
268.71	3.027
268.92	3.410
269.14	-1.267
269.35	-3.949
269.57	-8.613
269.78	-6.356
270.00	-1.998
270.21	-2.615
270.43	3.602
270.64	0.201
270.86	2.869
271.07	3.805
271.29	7.126
271.50	8.715
271.72	17.762
271.93	11.709
272.15	6.222
272.36	7.376
272.58	10.920
272.79	6.770
273.01	11.304
273.22	10.565
273.44	10.047
273.65	12.673
273.87	16.420
274.08	15.755
274.30	27.660
274.51	27.287
274.73	30.580
274.94	34.676
275.16	40.121
275.37	41.386
275.59	36.976
275.80	37.600
276.01	29.563
276.23	29.814
276.44	32.922
276.66	34.990
276.87	36.751
277.09	39.812
277.30	35.155
277.52	35.364
277.73	32.712
277.95	35.731
278.16	33.743
278.38	36.066
278.59	37.110
278.80	36.833
279.02	27.335
279.23	34.966
279.45	33.112
279.66	34.122
279.88	35.229
280.09	35.884
280.31	36.934
280.52	37.099
280.73	40.751
280.95	37.552
281.16	31.511
281.38	34.483
281.59	29.364
281.81	28.100
282.02	26.335
282.24	25.078
282.45	21.545
282.66	17.303
282.88	16.051
283.09	14.888
283.31	20.177
283.52	20.570
283.74	22.271
283.95	19.329
284.16	20.996
284.38	19.721
284.59	21.252
284.81	23.887
285.02	27.709
285.23	35.002
285.45	33.120
285.66	24.443
285.88	24.881
286.09	27.534
286.31	29.177
286.52	24.369
286.73	26.271
286.95	22.729
287.16	24.372
287.38	22.374
287.59	18.033
287.80	16.692
288.02	22.502
288.23	20.266
288.45	23.061
288.66	22.568
288.87	28.710
289.09	26.052
289.30	25.827
289.52	20.223
289.73	16.914
289.94	19.973
290.16	21.062
290.37	19.728
290.58	20.895
290.80	10.617
291.01	12.577
291.23	4.933
291.44	10.995
291.65	11.140
291.87	15.910
292.08	22.862
292.29	15.013
292.51	17.323
292.72	19.584
292.94	14.932
293.15	20.551
293.36	19.423
293.58	23.807
293.79	21.650
294.00	21.513
294.22	16.576
294.43	14.916
294.65	19.651
294.86	20.321
295.07	15.073
295.29	17.344
295.50	13.440
295.71	8.460
295.93	10.745
296.14	10.446
296.35	10.724
296.57	12.586
296.78	11.627
296.99	13.118
297.21	10.947
297.42	15.100
297.63	17.390
297.85	16.032
298.06	22.080
298.28	23.167
298.49	25.187
298.70	24.290
298.92	24.836
299.13	22.505
299.34	17.602
299.56	20.281
299.77	13.138
299.98	13.707
300.20	19.451
300.41	17.572
300.62	16.493
300.84	13.307
301.05	14.795
301.26	12.791
301.47	15.144
301.69	20.747
301.90	16.694
302.11	22.354
302.33	24.000
302.54	27.946
302.75	29.336
302.97	32.716
303.18	29.088
303.39	28.493
303.61	32.138
303.82	28.982
304.03	25.903
304.25	27.983
304.46	28.910
304.67	21.265
304.88	18.307
305.10	18.044
305.31	14.734
305.52	18.667
305.74	25.115
305.95	22.348
306.16	28.238
306.38	29.973
306.59	27.937
306.80	22.430
307.01	26.729
307.23	24.000
307.44	16.577
307.65	18.775
307.87	18.199
308.08	16.168
308.29	20.027
308.50	15.161
308.72	10.010
308.93	12.470
309.14	17.381
309.36	17.747
309.57	19.732
309.78	27.392
309.99	23.520
310.21	23.686
310.42	19.913
310.63	19.342
310.84	23.818
311.06	25.427
311.27	28.737
311.48	28.299
311.70	28.039
311.91	28.373
312.12	24.912
312.33	28.482
312.55	27.123
312.76	26.359
312.97	24.640
313.18	21.746
313.40	23.925
313.61	17.840
313.82	14.568
314.03	12.955
314.25	16.550
314.46	18.508
314.67	14.238
314.88	18.231
315.10	17.947
315.31	15.915
315.52	17.569
315.73	16.306
315.95	18.954
316.16	23.427
316.37	27.227
316.58	20.908
316.80	21.475
317.01	21.836
317.22	16.619
317.43	18.966
317.64	20.253
317.86	23.222
318.07	21.503
318.28	25.640
318.49	24.399
318.71	26.790
318.92	32.067
319.13	30.452
319.34	30.640
319.55	32.500
319.77	35.738
319.98	33.288
320.19	29.520
320.40	32.855
320.62	29.455
320.83	25.687
321.04	24.145
321.25	19.672
321.46	21.611
321.68	27.150
321.89	29.845
322.10	25.892
322.31	25.858
322.52	25.383
322.74	24.633
322.95	25.130
323.16	28.207
323.37	33.291
323.58	38.197
323.80	33.934
324.01	28.836
324.22	28.229
324.43	26.643
324.64	24.044
324.86	25.728
325.07	21.965
325.28	18.249
325.49	20.373
325.70	14.681
325.91	7.466
326.13	15.538
326.34	15.445
326.55	11.583
326.76	15.103
326.97	18.557
327.18	19.959
327.40	23.388
327.61	26.485
327.82	27.579
328.03	27.535
328.24	31.068
328.45	28.981
328.67	29.811
328.88	31.814
329.09	28.171
329.30	30.059
329.51	24.846
329.72	23.711
329.94	23.081
330.15	16.558
330.36	16.580
330.57	17.473
330.78	18.392
330.99	19.043
331.21	13.254
331.42	14.752
331.63	17.098
331.84	20.525
332.05	23.034
332.26	25.056
332.47	26.237
332.69	26.436
332.90	26.023
333.11	24.599
333.32	29.390
333.53	37.357
333.74	39.901
333.95	40.023
334.16	38.405
334.38	36.689
334.59	35.303
334.80	36.236
335.01	37.050
335.22	35.292
335.43	33.181
335.64	29.620
335.85	27.312
336.07	28.188
336.28	24.550
336.49	26.314
336.70	26.914
336.91	27.332
337.12	27.736
337.33	27.768
337.54	29.990
337.76	30.195
337.97	32.109
338.18	33.879
338.39	31.823
338.60	33.837
338.81	31.850
339.02	34.173
339.23	32.657
339.44	37.073
339.65	38.127
339.87	37.048
340.08	34.892
340.29	29.828
340.50	30.382
340.71	28.041
340.92	29.800
341.13	30.453
341.34	29.959
341.55	32.330
341.76	25.616
341.97	25.237
342.19	26.245
342.40	27.562
342.61	27.384
342.82	25.757
343.03	27.659
343.24	24.820
343.45	25.086
343.66	23.419
343.87	21.166
344.08	21.397
344.29	19.939
344.50	17.637
344.71	16.422
344.93	20.355
345.14	18.937
345.35	20.117
345.56	22.439
345.77	22.073
345.98	20.602
346.19	18.479
346.40	19.786
346.61	17.557
346.82	18.294
347.03	21.258
347.24	22.108
347.45	20.725
347.66	15.531
347.87	13.694
348.08	12.542
348.29	13.239
348.50	18.525
348.71	17.842
348.93	21.753
349.14	22.066
349.35	20.650
349.56	18.735
349.77	21.307
349.98	24.148
350.19	24.952
350.40	26.527
350.61	26.239
350.82	26.139
351.03	30.040
351.24	28.010
351.45	30.022
351.66	29.322
351.87	29.573
352.08	29.691
352.29	32.516
352.50	32.122
352.71	29.846
352.92	29.526
353.13	26.776
353.34	22.901
353.55	25.497
353.76	24.470
353.97	24.894
354.18	25.260
354.39	22.619
354.60	20.653
354.81	21.985
355.02	22.060
355.23	24.399
355.44	23.782
355.65	24.101
355.86	22.117
356.07	21.596
356.28	22.287
356.49	21.864
356.70	23.980
356.91	23.904
357.12	22.405
357.33	23.264
357.54	19.429
357.75	18.724
357.96	18.980
358.17	18.663
358.38	16.887
358.59	14.967
358.80	15.875
359.01	14.831
359.22	15.016
359.43	16.476
359.64	15.791
359.85	15.657
360.06	17.472
360.27	17.268
360.48	19.138
360.69	19.793
360.90	21.027
361.11	19.408
361.32	18.646
361.53	16.749
361.74	17.362
361.95	17.483
362.16	18.553
362.37	17.066
362.58	17.618
362.79	15.453
362.99	16.500
363.20	16.795
363.41	16.531
363.62	20.597
363.83	20.663
364.04	20.459
364.25	19.646
364.46	21.856
364.67	22.130
364.88	21.718
365.09	18.907
365.30	18.171
365.51	19.630
365.72	19.834
365.93	13.555
366.14	15.021
366.35	13.810
366.56	14.862
366.76	14.711
366.97	16.529
367.18	16.505
367.39	19.934
367.60	19.970
367.81	14.884
368.02	15.780
368.23	18.984
368.44	17.424
368.65	16.867
368.86	16.703
369.07	17.453
369.28	18.039
369.48	14.338
369.69	14.220
369.90	13.122
370.11	15.144
370.32	14.031
370.53	12.851
370.74	13.580
370.95	13.452
371.16	15.863
371.37	12.649
371.58	10.174
371.78	15.535
371.99	17.883
372.20	19.268
372.41	18.467
372.62	19.897
372.83	22.178
373.04	22.332
373.25	21.562
373.46	19.337
373.67	21.033
373.87	20.656
374.08	18.387
374.29	17.570
374.50	18.402
374.71	18.924
374.92	20.794
375.13	19.594
375.34	21.889
375.55	23.542
375.75	23.395
375.96	23.984
376.17	25.075
376.38	22.672
376.59	22.173
376.80	20.568
377.01	21.727
377.21	18.190
377.42	16.727
377.63	15.692
377.84	13.403
378.05	13.394
378.26	12.177
378.47	11.913
378.68	16.206
378.88	16.368
379.09	17.486
379.30	17.116
379.51	15.744
379.72	17.974
379.93	17.117
380.14	18.058
380.34	16.932
380.55	15.505
380.76	16.125
380.97	13.403
381.18	14.306
381.39	14.236
381.59	13.938
381.80	16.410
382.01	15.523
382.22	16.075
382.43	15.662
382.64	14.602
382.84	17.205
383.05	17.281
383.26	18.634
383.47	16.836
383.68	14.327
383.89	14.132
384.09	13.690
384.30	12.801
384.51	11.198
384.72	11.116
384.93	13.124
385.14	13.186
385.34	12.819
385.55	11.753
385.76	13.677
385.97	14.092
386.18	16.782
386.38	17.181
386.59	16.179
386.80	15.132
387.01	17.709
387.22	16.942
387.42	15.806
387.63	17.250
387.84	18.434
388.05	15.962
388.26	14.881
388.46	15.173
388.67	15.367
388.88	16.943
389.09	17.903
389.30	17.360
389.50	15.974
389.71	16.570
389.92	14.245
390.13	13.723
390.34	14.254
390.54	14.423
390.75	12.292
390.96	11.234
391.17	10.418
391.37	11.705
391.58	11.720
391.79	14.365
392.00	12.383
392.21	13.180
392.41	12.175
392.62	12.767
392.83	13.482
393.04	12.821
393.24	14.145
393.45	15.654
393.66	15.760
393.87	13.450
394.07	11.497
394.28	12.333
394.49	12.220
394.70	12.168
394.91	11.194
395.11	11.766
395.32	12.301
395.53	10.305
395.74	9.194
395.94	8.531
396.15	7.963
396.36	8.837
396.57	9.788
396.77	11.322
396.98	12.981
397.19	11.390
397.40	10.816
397.60	11.481
397.81	11.874
398.02	13.022
398.22	13.876
398.43	14.218
398.64	14.330
398.85	13.835
399.05	13.403
399.26	13.175
399.47	14.701
399.68	15.205
399.88	14.892
400.09	15.066
400.30	15.973
400.50	13.364
400.71	15.480
400.92	15.008
401.13	15.023
401.33	13.964
401.54	12.993
401.75	12.437
401.95	12.173
402.16	12.502
402.37	13.130
402.58	10.592
402.78	13.555
402.99	12.775
403.20	12.919
403.40	12.978
403.61	13.748
403.82	13.373
404.03	13.097
404.23	15.253
404.44	15.742
404.65	16.834
404.85	16.760
405.06	14.865
405.27	14.601
405.47	15.369
405.68	15.522
405.89	14.374
406.09	15.176
406.30	16.189
406.51	15.111
406.71	13.974
406.92	14.647
407.13	16.157
407.34	16.461
407.54	18.541
407.75	17.562
407.96	17.287
408.16	19.184
408.37	17.608
408.58	17.383
408.78	16.099
408.99	15.158
409.20	12.698
409.40	9.722
409.61	11.062
409.82	6.951
410.02	8.290
410.23	8.743
410.44	9.644
410.64	11.752
410.85	11.994
411.05	11.631
411.26	13.578
411.47	13.640
411.67	15.831
411.88	15.404
412.09	17.076
412.29	17.305
412.50	17.594
412.71	17.122
412.91	15.592
413.12	15.429
413.33	15.498
413.53	15.024
413.74	16.239
413.94	15.976
414.15	14.787
414.36	14.443
414.56	14.193
414.77	14.334
414.98	12.477
415.18	12.045
415.39	11.768
415.59	11.714
415.80	11.450
416.01	11.345
416.21	12.134
416.42	12.325
416.63	12.987
416.83	12.827
417.04	12.109
417.24	11.873
417.45	13.917
417.66	15.083
417.86	15.399
418.07	14.879
418.27	14.170
418.48	12.919
418.69	14.065
418.89	14.023
419.10	12.785
419.30	12.098
419.51	12.541
419.72	10.688
419.92	10.634
420.13	10.833
420.33	12.248
420.54	12.014
420.75	11.706
420.95	11.490
421.16	11.501
421.36	12.514
421.57	14.019
421.78	13.986
421.98	14.201
422.19	14.160
422.39	14.096
422.60	13.470
422.80	13.631
423.01	14.627
423.22	13.407
423.42	13.650
423.63	13.236
423.83	11.835
424.04	12.133
424.24	12.913
424.45	12.656
424.66	11.790
424.86	10.897
425.07	10.473
425.27	9.606
425.48	10.858
425.68	9.663
425.89	9.389
426.10	10.043
426.30	10.526
426.51	10.081
426.71	9.923
426.92	10.621
427.12	11.452
427.33	12.415
427.53	11.438
427.74	10.589
427.94	11.419
428.15	11.867
428.36	11.380
428.56	10.946
428.77	11.264
428.97	10.923
429.18	12.460
429.38	12.506
429.59	12.863
429.79	14.815
430.00	15.056
430.20	15.813
430.41	16.129
430.61	16.378
430.82	16.524
431.02	17.075
431.23	17.495
431.43	16.506
431.64	16.313
431.84	16.092
432.05	15.315
432.26	15.306
432.46	13.402
432.67	12.842
432.87	13.164
433.08	11.928
433.28	11.167
433.49	10.312
433.69	10.480
433.90	10.651
434.10	10.398
434.31	10.461
434.51	11.868
434.72	13.064
434.92	13.855
435.13	13.813
435.33	14.031
435.54	14.215
435.74	14.289
435.95	14.323
436.15	15.178
436.36	15.563
436.56	17.118
436.76	15.063
436.97	15.639
437.17	15.556
437.38	16.170
437.58	16.842
437.79	16.390
437.99	17.023
438.20	16.020
438.40	16.141
438.61	16.691
438.81	16.149
439.02	16.596
439.22	15.535
439.43	15.013
439.63	13.868
439.84	12.544
440.04	13.394
440.24	13.032
440.45	13.592
440.65	12.701
440.86	12.103
441.06	12.428
441.27	12.789
441.47	13.503
441.68	14.027
441.88	14.073
442.09	15.271
442.29	14.729
442.49	14.918
442.70	15.371
442.90	15.469
443.11	15.265
443.31	14.876
443.52	13.929
443.72	13.803
443.93	12.565
444.13	13.067
444.33	12.946
444.54	12.440
444.74	12.705
444.95	12.462
445.15	11.840
445.36	12.046
445.56	11.571
445.76	12.315
445.97	11.783
446.17	12.573
446.38	13.063
446.58	13.243
446.79	13.359
446.99	12.896
447.19	13.279
447.40	13.627
447.60	13.544
447.81	13.850
448.01	13.266
448.21	13.795
448.42	12.561
448.62	11.690
448.83	12.350
449.03	13.176
449.23	13.554
449.44	12.897
449.64	12.584
449.85	12.749
450.05	13.375
450.25	13.386
450.46	13.417
450.66	13.592
450.87	13.857
451.07	13.325
451.27	13.681
451.48	13.550
451.68	14.407
451.88	14.664
452.09	15.338
452.29	15.174
452.50	15.534
452.70	15.567
452.90	16.559
453.11	16.715
453.31	16.000
453.51	14.727
453.72	14.581
453.92	12.723
454.13	13.350
454.33	11.947
454.53	11.525
454.74	12.022
454.94	11.257
455.14	11.581
455.35	11.865
455.55	12.164
455.75	12.391
455.96	13.030
456.16	13.377
456.37	13.331
456.57	14.158
456.77	13.771
456.98	12.980
457.18	14.474
457.38	14.164
457.59	14.423
457.79	14.215
457.99	14.403
458.20	13.722
458.40	14.779
458.60	14.003
458.81	13.794
459.01	13.540
459.21	14.155
459.42	13.415
459.62	13.811
459.82	13.222
460.03	13.168
460.23	13.657
460.43	14.358
460.64	13.623
460.84	14.246
461.04	14.322
461.25	15.090
461.45	15.429
461.65	14.347
461.86	13.201
462.06	12.914
462.26	11.727
462.46	11.875
462.67	9.823
462.87	10.847
463.07	11.232
463.28	11.514
463.48	9.888
463.68	9.288
463.89	11.474
464.09	12.353
464.29	11.972
464.49	13.353
464.70	13.473
464.90	15.325
465.10	14.976
465.31	14.263
465.51	12.982
465.71	13.942
465.92	13.430
466.12	12.475
466.32	13.254
466.52	14.639
466.73	14.720
466.93	12.960
467.13	12.132
467.33	11.380
467.54	12.105
467.74	12.695
467.94	12.295
468.15	11.660
468.35	11.769
468.55	11.289
468.75	11.039
468.96	11.870
469.16	12.686
469.36	12.790
469.56	12.735
469.77	12.195
469.97	12.834
470.17	13.026
470.37	13.990
470.58	13.476
470.78	13.230
470.98	13.137
471.18	13.425
471.39	13.409
471.59	13.235
471.79	13.481
471.99	13.215
472.20	13.532
472.40	14.489
472.60	14.539
472.80	15.441
473.01	15.727
473.21	16.061
473.41	15.357
473.61	14.495
473.82	15.881
474.02	15.988
474.22	16.396
474.42	15.589
474.63	15.447
474.83	15.378
475.03	15.682
475.23	16.254
475.43	14.889
475.64	13.974
475.84	14.844
476.04	13.969
476.24	14.839
476.44	14.843
476.65	14.851
476.85	13.985
477.05	14.248
477.25	12.728
477.46	11.286
477.66	11.837
477.86	12.590
478.06	12.486
478.26	12.406
478.47	12.633
478.67	12.594
478.87	11.897
479.07	12.162
479.27	12.180
479.48	13.073
479.68	12.284
479.88	12.884
480.08	12.771
480.28	13.952
480.48	14.259
480.69	13.515
480.89	13.284
481.09	13.725
481.29	13.806
481.49	13.285
481.70	13.194
481.90	13.723
482.10	13.411
482.30	13.154
482.50	12.483
482.70	11.971
482.91	11.816
483.11	11.445
483.31	11.742
483.51	11.659
483.71	11.510
483.91	11.468
484.12	11.344
484.32	11.216
484.52	11.238
484.72	11.298
484.92	11.340
485.12	11.650
485.32	11.955
485.53	11.667
485.73	11.726
485.93	11.772
486.13	11.990
486.33	12.022
486.53	12.023
486.73	11.935
486.94	11.796
487.14	12.038
487.34	11.903
487.54	11.747
487.74	11.694
487.94	11.581
488.14	11.744
488.35	11.472
488.55	11.596
488.75	11.345
488.95	11.374
489.15	11.166
489.35	11.207
489.55	11.206
489.75	10.992
489.96	11.050
490.16	10.760
490.36	10.817
490.56	11.266
490.76	11.425
490.96	11.884
491.16	12.068
491.36	12.242
491.56	12.505
491.77	12.236
491.97	12.561
492.17	12.893
492.37	13.495
492.57	13.231
492.77	13.184
492.97	13.678
493.17	14.097
493.37	13.872
493.57	13.422
493.78	13.007
493.98	13.566
494.18	13.207
494.38	13.165
494.58	12.232
494.78	12.589
494.98	12.848
495.18	13.052
495.38	12.602
495.58	12.777
495.78	13.112
495.98	13.049
496.19	13.187
496.39	13.601
496.59	13.347
496.79	14.183
496.99	14.270
497.19	13.923
497.39	12.866
497.59	12.004
497.79	11.845
497.99	12.386
498.19	12.446
498.39	11.448
498.59	10.978
498.79	11.104
498.99	10.687
499.19	10.842
499.40	10.578
499.60	11.152
499.80	11.743
500.00	12.527
500.20	12.619
500.40	12.877
500.60	13.285
500.80	13.108
501.00	12.995
501.20	12.792
501.40	12.610
501.60	13.139
501.80	13.301
502.00	13.820
502.20	13.331
502.40	13.288
502.60	12.923
502.80	13.360
503.00	14.013
503.20	14.213
503.40	14.013
503.60	15.481
503.80	14.770
504.00	14.995
504.20	14.364
504.40	14.510
504.60	14.659
504.80	14.724
505.00	14.835
505.20	15.540
505.40	15.247
505.60	15.620
505.80	14.033
506.00	14.964
506.20	13.868
506.40	14.293
506.60	14.527
506.80	14.217
507.00	14.434
507.20	14.132
507.40	12.717
507.60	12.360
507.80	12.195
508.00	12.069
508.20	11.582
508.40	12.109
508.60	11.891
508.80	11.516
509.00	12.092
509.20	11.937
509.40	12.062
509.60	12.876
509.80	12.881
510.00	13.079
510.20	13.529
510.40	13.176
510.60	13.476
510.80	14.019
511.00	14.181
511.20	14.121
511.40	13.915
511.60	13.787
511.80	14.129
512.00	14.342
512.20	14.303
512.40	14.312
512.60	14.725
512.80	14.812
513.00	14.359
513.20	13.844
513.40	13.422
513.60	13.579
513.80	13.641
513.99	13.484
514.19	14.455
514.39	15.201
514.59	14.759
514.79	15.196
514.99	14.885
515.19	15.028
515.39	15.918
515.59	16.239
515.79	17.119
515.99	17.314
516.19	17.113
516.39	16.296
516.59	15.638
516.79	15.489
516.98	15.334
517.18	15.793
517.38	16.087
517.58	15.831
517.78	15.839
517.98	15.128
518.18	14.471
518.38	14.146
518.58	14.570
518.78	14.150
518.98	14.326
519.18	14.463
519.37	14.057
519.57	13.952
519.77	13.715
519.97	13.373
520.17	13.241
520.37	14.117
520.57	14.836
520.77	14.174
520.97	14.510
521.17	15.316
521.36	15.180
521.56	15.496
521.76	15.574
521.96	15.840
522.16	15.515
522.36	15.968
522.56	15.481
522.76	15.035
522.96	15.608
523.15	16.092
523.35	15.914
523.55	16.144
523.75	16.437
523.95	16.368
524.15	16.413
524.35	16.469
524.55	16.213
524.74	16.349
524.94	16.066
525.14	16.180
525.34	16.639
525.54	16.530
525.74	16.171
525.94	15.681
526.13	15.720
526.33	15.776
526.53	16.035
526.73	16.394
526.93	16.080
527.13	16.149
527.33	15.481
527.52	15.012
527.72	14.615
527.92	14.574
528.12	14.396
528.32	14.278
528.52	14.256
528.71	14.215
528.91	14.023
529.11	14.070
529.31	14.018
529.51	14.391
529.71	14.593
529.90	14.631
530.10	14.929
530.30	15.123
530.50	15.647
530.70	15.896
530.90	15.959
531.09	16.215
531.29	15.884
531.49	16.381
531.69	16.491
531.89	16.371
532.09	16.216
532.28	16.053
532.48	16.550
532.68	15.958
532.88	15.437
533.08	15.135
533.27	14.850
533.47	15.464
533.67	15.090
533.87	14.994
534.07	14.847
534.26	15.136
534.46	15.157
534.66	15.069
534.86	15.139
535.06	15.643
535.25	15.955
535.45	16.681
535.65	16.754
535.85	17.122
536.04	17.357
536.24	18.025
536.44	18.517
536.64	18.498
536.84	18.180
537.03	18.224
537.23	17.974
537.43	18.092
537.63	17.521
537.82	17.405
538.02	17.747
538.22	17.672
538.42	16.828
538.62	16.639
538.81	16.452
539.01	16.670
539.21	17.252
539.41	17.645
539.60	18.211
539.80	19.005
540.00	19.061
540.20	18.099
540.39	17.804
540.59	17.785
540.79	17.160
540.99	16.913
541.18	16.561
541.38	16.321
541.58	15.935
541.78	15.733
541.97	15.037
542.17	15.005
542.37	15.566
542.57	15.821
542.76	15.568
542.96	16.124
543.16	16.574
543.36	16.829
543.55	17.171
543.75	17.408
543.95	17.284
544.14	17.904
544.34	17.904
544.54	17.875
544.74	18.042
544.93	18.789
545.13	18.340
545.33	17.960
545.52	17.590
545.72	17.021
545.92	17.487
546.12	17.689
546.31	17.055
546.51	17.107
546.71	16.907
546.90	16.966
547.10	17.075
547.30	17.628
547.49	17.516
547.69	17.583
547.89	17.404
548.09	17.410
548.28	16.560
548.48	16.793
548.68	17.063
548.87	17.197
549.07	16.707
549.27	16.503
549.46	16.276
549.66	17.419
549.86	18.728
550.05	19.746
550.25	19.762
550.45	21.112
550.64	21.323
550.84	20.751
551.04	21.046
551.24	20.638
551.43	20.185
551.63	19.871
551.83	19.058
552.02	18.126
552.22	18.210
552.41	18.380
552.61	18.247
552.81	18.657
553.00	18.666
553.20	18.804
553.40	19.377
553.59	19.635
553.79	19.594
553.99	19.959
554.18	19.498
554.38	19.058
554.58	18.108
554.77	18.492
554.97	18.299
555.17	19.789
555.36	18.987
555.56	19.378
555.76	19.706
555.95	19.615
556.15	19.170
556.34	19.694
556.54	18.724
556.74	19.949
556.93	20.652
557.13	20.445
557.33	18.777
557.52	19.142
557.72	19.548
557.91	19.425
558.11	19.861
558.31	20.054
558.50	20.936
558.70	22.190
558.90	22.275
559.09	22.942
559.29	23.625
559.48	24.971
559.68	24.534
559.88	23.556
560.07	24.180
560.27	24.454
560.46	24.242
560.66	23.788
560.86	23.554
561.05	22.581
561.25	21.299
561.44	21.721
561.64	20.889
561.84	22.125
562.03	22.224
562.23	21.391
562.42	21.010
562.62	20.725
562.81	21.195
563.01	21.445
563.21	22.090
563.40	22.320
563.60	22.533
563.79	23.586
563.99	22.592
564.18	21.916
564.38	22.475
564.58	22.899
564.77	23.973
564.97	23.215
565.16	23.552
565.36	23.191
565.55	22.786
565.75	21.672
565.95	20.915
566.14	21.041
566.34	21.715
566.53	21.198
566.73	21.237
566.92	21.308
567.12	21.632
567.31	21.492
567.51	21.702
567.71	21.905
567.90	22.329
568.10	22.209
568.29	23.541
568.49	23.391
568.68	22.966
568.88	23.354
569.07	23.397
569.27	24.091
569.46	23.223
569.66	22.996
569.85	23.192
570.05	22.467
570.24	23.226
570.44	22.098
570.64	22.093
570.83	22.993
571.03	21.812
571.22	21.256
571.42	21.828
571.61	22.198
571.81	22.481
572.00	22.788
572.20	22.506
572.39	21.693
572.59	22.263
572.78	23.341
572.98	22.805
573.17	22.821
573.37	23.223
573.56	22.625
573.76	22.812
573.95	22.716
574.15	21.414
574.34	22.087
574.54	22.022
574.73	21.195
574.93	20.088
575.12	21.082
575.32	21.718
575.51	21.560
575.71	20.669
575.90	20.458
576.10	19.973
576.29	20.275
576.49	20.592
576.68	20.395
576.87	20.088
577.07	20.226
577.26	19.578
577.46	19.451
577.65	19.044
577.85	19.146
578.04	19.173
578.24	19.102
578.43	20.286
578.63	20.196
578.82	20.276
579.02	21.063
579.21	20.364
579.41	21.102
579.60	21.847
579.79	21.469
579.99	21.837
580.18	21.860
580.38	22.357
580.57	20.990
580.77	21.007
580.96	22.184
581.16	20.564
581.35	20.923
581.54	20.311
581.74	18.522
581.93	20.388
582.13	20.896
582.32	22.211
582.52	22.402
582.71	23.329
582.90	24.269
583.10	24.367
583.29	24.983
583.49	26.454
583.68	25.382
583.88	27.487
584.07	25.060
584.26	24.462
584.46	22.779
584.65	22.236
584.85	21.972
585.04	21.400
585.23	21.157
585.43	22.203
585.62	21.043
585.82	22.502
586.01	21.502
586.20	22.957
586.40	24.414
586.59	24.382
586.79	26.614
586.98	26.247
587.17	25.429
587.37	24.862
587.56	24.947
587.76	25.634
587.95	24.745
588.14	24.182
588.34	24.083
588.53	23.481
588.73	24.741
588.92	22.736
589.11	23.279
589.31	23.291
589.50	23.180
589.69	23.908
589.89	23.798
590.08	24.805
590.28	25.717
590.47	25.876
590.66	26.515
590.86	25.175
591.05	25.347
591.24	25.103
591.44	24.744
591.63	25.318
591.82	25.177
592.02	24.621
592.21	24.224
592.41	23.974
592.60	24.100
592.79	23.774
592.99	24.053
593.18	23.521
593.37	24.181
593.57	25.153
593.76	24.252
593.95	24.919
594.15	25.431
594.34	25.310
594.53	25.640
594.73	25.272
594.92	24.720
595.11	24.747
595.31	24.462
595.50	23.398
595.69	23.160
595.89	23.558
596.08	22.667
596.27	22.633
596.47	22.702
596.66	22.521
596.85	22.329
597.05	22.023
597.24	22.058
597.43	22.544
597.62	23.466
597.82	23.346
598.01	24.042
598.20	23.742
598.40	23.230
598.59	22.346
598.78	21.795
598.98	21.875
599.17	21.943
599.36	21.484
599.55	21.292
599.75	20.968
599.94	21.403
600.13	20.813
600.33	20.885
600.52	21.382
600.71	22.387
600.91	22.299
601.10	22.824
601.29	22.608
601.48	23.489
601.68	23.917
601.87	22.828
602.06	23.094
602.25	22.791
602.45	22.454
602.64	22.097
602.83	22.529
603.03	23.803
603.22	23.484
603.41	23.661
603.60	24.506
603.80	25.353
603.99	25.559
604.18	25.296
604.37	24.605
604.57	24.743
604.76	24.710
604.95	24.184
605.14	23.081
605.34	23.285
605.53	23.199
605.72	22.598
605.91	21.976
606.11	21.534
606.30	21.566
606.49	23.349
606.68	23.574
606.88	24.205
607.07	25.017
607.26	24.876
607.45	24.632
607.65	23.962
607.84	23.608
608.03	23.937
608.22	23.303
608.41	22.739
608.61	21.683
608.80	20.755
608.99	19.202
609.18	18.056
609.38	18.958
609.57	19.466
609.76	19.031
609.95	18.565
610.14	17.844
610.34	19.194
610.53	19.654
610.72	19.313
610.91	20.215
611.10	20.827
611.30	21.486
611.49	22.144
611.68	23.153
611.87	24.218
612.06	25.969
612.26	26.302
612.45	26.115
612.64	26.560
612.83	26.077
613.02	26.280
613.22	26.220
613.41	25.966
613.60	24.543
613.79	23.349
613.98	22.663
614.17	21.275
614.37	20.195
614.56	20.817
614.75	20.370
614.94	20.268
615.13	19.303
615.32	18.796
615.52	19.259
615.71	18.335
615.90	17.719
616.09	18.369
616.28	19.531
616.47	20.822
616.67	20.143
616.86	19.080
617.05	19.009
617.24	19.341
617.43	21.280
617.62	20.493
617.82	21.381
618.01	21.055
618.20	21.455
618.39	22.279
618.58	23.346
618.77	23.134
618.96	23.865
619.16	26.006
619.35	27.024
619.54	27.676
619.73	27.973
619.92	28.681
620.11	28.433
620.30	28.094
620.49	26.260
620.69	24.878
620.88	25.245
621.07	23.587
621.26	23.997
621.45	23.847
621.64	21.311
621.83	21.715
622.02	21.812
622.22	21.981
622.41	22.378
622.60	22.297
622.79	22.711
622.98	23.243
623.17	25.000
623.36	22.235
623.55	20.488
623.74	21.110
623.93	19.831
624.13	19.041
624.32	20.138
624.51	20.236
624.70	20.134
624.89	19.883
625.08	19.220
625.27	19.095
625.46	19.521
625.65	19.800
625.84	19.939
626.03	21.391
626.23	20.759
626.42	19.936
626.61	20.040
626.80	20.370
626.99	19.825
627.18	20.557
627.37	20.682
627.56	20.425
627.75	20.527
627.94	21.038
628.13	20.186
628.32	21.076
628.51	20.887
628.70	21.150
628.89	20.488
629.09	21.386
629.28	20.331
629.47	20.928
629.66	22.487
629.85	22.300
630.04	20.276
630.23	20.924
630.42	20.561
630.61	20.590
630.80	20.708
630.99	21.375
631.18	19.219
631.37	18.901
631.56	17.399
631.75	18.225
631.94	18.895
632.13	21.394
632.32	20.104
632.51	20.075
632.70	20.419
632.89	20.243
633.08	21.138
633.27	23.609
633.46	24.499
633.65	26.701
633.84	25.498
634.03	24.303
634.22	23.753
634.41	25.000
634.60	24.980
634.79	25.340
634.99	25.940
635.18	25.553
635.37	24.322
635.56	22.566
635.75	20.901
635.94	19.660
636.13	20.204
636.32	19.645
636.51	19.337
636.69	19.415
636.88	20.311
637.07	18.878
637.26	16.448
637.45	17.585
637.64	19.125
637.83	20.259
638.02	20.689
638.21	21.572
638.40	21.983
638.59	21.059
638.78	21.993
638.97	20.952
639.16	21.318
639.35	23.497
639.54	23.411
639.73	23.515
639.92	22.870
640.11	23.173
640.30	24.767
640.49	25.232
640.68	25.511
640.87	23.302
641.06	23.525
641.25	24.170
641.44	22.327
641.63	21.005
641.82	21.281
642.01	21.042
642.20	20.511
642.39	18.115
642.58	18.015
642.76	17.070
642.95	18.408
643.14	18.410
643.33	15.956
643.52	17.104
643.71	16.143
643.90	17.500
644.09	17.094
644.28	16.186
644.47	16.879
644.66	17.700
644.85	20.194
645.04	21.147
645.23	21.664
645.41	24.533
645.60	24.020
645.79	24.899
645.98	22.546
646.17	22.028
646.36	21.635
646.55	21.257
646.74	20.673
646.93	19.156
647.12	16.334
647.31	16.489
647.49	13.738
647.68	14.711
647.87	16.197
648.06	18.459
648.25	18.167
648.44	21.498
648.63	20.098
648.82	20.252
649.01	21.398
649.20	21.787
649.38	20.416
649.57	20.444
649.76	21.827
649.95	22.190
650.14	20.979
650.33	23.389
650.52	20.745
650.71	22.041
650.89	22.275
651.08	20.898
651.27	22.924
651.46	22.692
651.65	23.003
651.84	22.074
652.03	22.282
652.22	23.329
652.40	21.522
652.59	22.205
652.78	22.656
652.97	22.149
653.16	23.774
653.35	22.435
653.54	23.808
653.72	23.258
653.91	23.111
654.10	22.528
654.29	21.572
654.48	22.767
654.67	23.320
654.85	22.751
655.04	22.609
655.23	22.650
655.42	25.156
655.61	24.065
655.80	24.669
655.98	23.682
656.17	23.390
656.36	24.281
656.55	24.093
656.74	24.799
656.93	22.707
657.11	21.489
657.30	19.651
657.49	15.882
657.68	16.132
657.87	16.795
658.06	15.417
658.24	15.129
658.43	14.827
658.62	13.925
658.81	13.472
659.00	14.626
659.18	15.133
659.37	15.501
659.56	17.561
659.75	18.232
659.94	17.861
660.12	18.793
660.31	19.007
660.50	19.209
660.69	20.480
660.88	20.332
661.06	20.672
661.25	21.068
661.44	19.348
661.63	19.223
661.81	19.538
662.00	20.411
662.19	19.841
662.38	19.656
662.57	21.111
662.75	19.895
662.94	20.081
663.13	21.108
663.32	21.557
663.50	23.086
663.69	23.383
663.88	23.211
664.07	23.659
664.25	24.522
664.44	21.795
664.63	17.197
664.82	17.487
665.00	16.058
665.19	13.984
665.38	14.132
665.57	15.196
665.75	15.918
665.94	15.797
666.13	15.018
666.32	16.277
666.50	19.555
666.69	22.508
666.88	21.843
667.07	22.085
667.25	22.148
667.44	22.273
667.63	21.337
667.82	17.301
668.00	17.912
668.19	18.755
668.38	18.603
668.56	16.997
668.75	16.705
668.94	17.559
669.13	19.663
669.31	20.365
669.50	20.783
669.69	21.331
669.88	25.089
670.06	24.163
670.25	23.858
670.44	23.963
670.62	24.676
670.81	25.286
671.00	23.638
671.18	22.395
671.37	21.669
671.56	19.369
671.75	21.189
671.93	21.361
672.12	21.176
672.31	20.936
672.49	21.062
672.68	21.089
672.87	20.444
673.05	22.743
673.24	21.903
673.43	22.406
673.61	24.019
673.80	23.687
673.99	23.067
674.17	24.180
674.36	24.503
674.55	24.233
674.73	24.956
674.92	25.739
675.11	25.601
675.29	26.855
675.48	28.155
675.67	26.542
675.85	26.987
676.04	26.598
676.23	27.254
676.41	25.687
676.60	26.102
676.79	26.532
676.97	26.448
677.16	24.700
677.35	24.242
677.53	25.095
677.72	26.752
677.91	23.954
678.09	23.470
678.28	22.117
678.47	20.805
678.65	19.476
678.84	17.520
679.02	16.829
679.21	18.670
679.40	16.253
679.58	16.657
679.77	17.737
679.96	20.170
680.14	20.327
680.33	20.579
680.51	21.371
680.70	22.780
680.89	24.442
681.07	24.132
681.26	22.571
681.44	23.684
681.63	21.934
681.82	20.655
682.00	20.594
682.19	22.104
682.38	22.405
682.56	22.575
682.75	21.879
682.93	20.889
683.12	20.930
683.31	22.152
683.49	22.874
683.68	23.092
683.86	22.433
684.05	23.010
684.23	21.442
684.42	21.392
684.61	22.159
684.79	19.825
684.98	19.953
685.16	19.217
685.35	18.062
685.54	16.701
685.72	16.266
685.91	15.599
686.09	14.668
686.28	16.153
686.46	16.705
686.65	16.505
686.83	16.858
687.02	18.416
687.21	20.730
687.39	23.100
687.58	24.650
687.76	24.515
687.95	25.166
688.13	23.842
688.32	21.316
688.50	18.797
688.69	20.760
688.88	22.124
689.06	20.680
689.25	19.501
689.43	19.282
689.62	19.079
689.80	20.195
689.99	20.115
690.17	21.453
690.36	23.322
690.54	23.566
690.73	20.030
690.91	21.767
691.10	22.962
691.29	22.944
691.47	24.005
691.66	24.686
691.84	25.777
692.03	25.469
692.21	22.663
692.40	22.435
692.58	25.323
692.77	27.108
692.95	25.387
693.14	26.423
693.32	25.079
693.51	23.328
693.69	23.063
693.88	22.669
694.06	22.527
694.25	24.946
694.43	23.656
694.62	20.423
694.80	18.730
694.99	19.179
695.17	17.462
695.36	20.063
695.54	17.344
695.73	17.678
695.91	17.719
696.10	17.955
696.28	17.042
696.47	16.833
696.65	17.421
696.84	17.929
697.02	19.273
697.20	19.741
697.39	16.548
697.57	17.860
697.76	17.472
697.94	15.866
698.13	17.598
698.31	18.788
698.50	19.227
698.68	19.400
698.87	19.036
699.05	19.217
699.24	20.249
699.42	24.434
699.60	25.359
699.79	24.837
699.97	27.425
700.16	26.069
700.34	25.861
700.53	27.779
700.71	28.666
700.90	30.181
701.08	30.145
701.26	27.912
701.45	24.457
701.63	23.173
701.82	22.419
702.00	17.899
702.19	21.517
702.37	22.141
702.55	20.043
702.74	18.754
702.92	18.548
703.11	19.486
703.29	18.601
703.48	20.743
703.66	22.781
703.84	25.999
704.03	28.618
704.21	26.367
704.40	24.162
704.58	22.374
704.76	23.494
704.95	24.779
705.13	21.535
705.32	24.900
705.50	26.169
705.68	22.012
705.87	21.298
706.05	18.330
706.24	17.334
706.42	19.557
706.60	21.394
706.79	21.734
706.97	22.911
707.15	20.382
707.34	21.059
707.52	16.993
707.71	22.679
707.89	22.155
708.07	25.267
708.26	25.674
708.44	25.749
708.62	26.504
708.81	25.229
708.99	22.183
709.18	26.594
709.36	25.914
709.54	26.906
709.73	27.941
709.91	29.833
710.09	29.732
710.28	31.418
710.46	28.477
710.64	26.569
710.83	25.217
711.01	25.681
711.19	22.808
711.38	21.988
711.56	22.136
711.74	19.396
711.93	19.412
712.11	18.017
712.30	14.387
712.48	16.138
712.66	17.938
712.85	20.326
713.03	20.787
713.21	21.630
713.39	20.084
713.58	22.454
713.76	21.901
713.94	21.803
714.13	25.873
714.31	28.119
714.49	26.485
714.68	24.391
714.86	23.722
715.04	23.406
715.23	23.274
715.41	25.044
715.59	22.962
715.78	22.631
715.96	20.833
716.14	15.309
716.32	18.369
716.51	19.819
716.69	25.965
716.87	23.975
717.06	25.990
717.24	27.753
717.42	26.021
717.61	28.034
717.79	30.124
717.97	30.107
718.15	35.892
718.34	36.430
718.52	36.388
718.70	32.806
718.88	32.774
719.07	31.518
719.25	29.044
719.43	31.478
719.62	31.573
719.80	31.859
719.98	31.299
720.16	29.407
720.35	26.900
720.53	28.619
720.71	22.167
720.89	24.042
721.08	23.672
721.26	29.271
721.44	26.769
721.62	26.950
721.81	23.240
721.99	25.255
722.17	19.046
722.35	18.707
722.54	21.325
722.72	27.367
722.90	23.002
723.08	22.955
723.27	19.135
723.45	19.514
723.63	22.812
723.81	23.359
724.00	23.589
724.18	23.517
724.36	19.941
724.54	13.775
724.72	15.213
724.91	15.378
725.09	13.890
725.27	16.607
725.45	19.726
725.64	12.155
725.82	15.479
726.00	13.977
726.18	23.092
726.36	27.294
726.55	31.681
726.73	35.894
726.91	39.590
727.09	40.725
727.27	40.658
727.46	38.129
727.64	38.817
727.82	39.433
728.00	39.507
728.18	39.709
728.37	37.131
728.55	36.387
728.73	34.313
728.91	35.991
729.09	38.344
729.27	36.928
729.46	37.278
729.64	38.754
729.82	35.217
730.00	37.410
730.18	33.126
730.36	33.794
730.55	32.321
730.73	27.454
730.91	27.368
731.09	23.122
731.27	23.944
731.45	23.643
731.64	22.865
731.82	27.247
732.00	26.721
732.18	25.534
732.36	20.684
732.54	23.958
732.73	27.279
732.91	27.267
733.09	28.686
733.27	28.699
733.45	30.584
733.63	30.237
733.81	29.361
734.00	31.354
734.18	31.503
734.36	32.892
734.54	30.540
734.72	34.294
734.90	31.421
735.08	29.306
735.26	28.049
735.45	25.998
735.63	25.302
735.81	24.975
735.99	22.614
736.17	32.165
736.35	36.707
736.53	38.024
736.71	34.376
736.89	31.059
737.08	34.203
737.26	33.801
737.44	33.515
737.62	36.551
737.80	31.072
737.98	34.920
738.16	29.447
738.34	30.279
738.52	32.796
738.70	30.643
738.89	34.047
739.07	38.843
739.25	37.787
739.43	36.270
739.61	31.779
739.79	35.522
739.97	33.839
740.15	35.302
740.33	37.194
740.51	34.081
740.69	35.583
740.87	35.036
741.06	30.587
741.24	31.934
741.42	31.955
741.60	34.633
741.78	37.379
741.96	34.353
742.14	30.379
742.32	23.517
742.50	25.013
742.68	25.263
742.86	29.784
743.04	29.932
743.22	31.970
743.40	36.476
743.58	31.591
743.76	34.836
743.94	33.969
744.12	36.911
744.30	43.774
744.49	44.410
744.67	45.573
744.85	42.660
745.03	44.839
745.21	39.804
745.39	34.747
745.57	37.277
745.75	32.397
745.93	32.792
746.11	30.576
746.29	29.889
746.47	29.983
746.65	28.739
746.83	34.975
747.01	32.266
747.19	35.435
747.37	37.563
747.55	35.852
747.73	32.618
747.91	36.662
748.09	38.548
748.27	36.262
748.45	34.950
748.63	29.728
748.81	28.511
748.99	31.598
749.17	29.151
749.35	27.521
749.53	29.628
749.71	26.851
749.89	21.106
750.07	22.473
750.25	24.043
750.43	25.183
750.61	25.520
750.79	23.151
750.97	22.810
751.15	28.281
751.33	33.914
751.51	32.596
751.69	36.924
751.87	39.824
752.05	36.518
752.23	32.625
752.40	34.821
752.58	36.145
752.76	35.788
752.94	36.757
753.12	38.064
753.30	37.552
753.48	39.101
753.66	42.449
753.84	44.982
754.02	48.345
754.20	54.351
754.38	47.126
754.56	47.308
754.74	49.618
754.92	47.459
755.10	46.919
755.28	44.939
755.46	44.124
755.64	39.080
755.81	37.275
755.99	35.476
756.17	31.753
756.35	36.142
756.53	35.307
756.71	35.894
756.89	35.882
757.07	31.326
757.25	30.018
757.43	32.324
757.61	38.326
757.79	39.797
757.96	40.475
758.14	41.495
758.32	40.026
758.50	42.825
758.68	41.554
758.86	40.245
759.04	41.417
759.22	41.546
759.40	37.699
759.58	35.656
759.75	31.853
759.93	31.259
760.11	35.144
760.29	36.865
760.47	35.617
760.65	38.056
760.83	37.451
761.01	40.386
761.19	40.826
761.36	41.620
761.54	42.795
761.72	47.516
761.90	43.685
762.08	43.830
762.26	43.231
762.44	43.608
762.62	40.930
762.79	43.791
762.97	42.575
763.15	40.682
763.33	41.926
763.51	38.401
763.69	35.684
763.87	39.396
764.04	36.150
764.22	32.505
764.40	30.883
764.58	33.032
764.76	31.266
764.94	27.890
765.11	31.987
765.29	34.172
765.47	38.877
765.65	34.938
765.83	35.561
766.01	33.444
766.18	35.657
766.36	34.762
766.54	27.859
766.72	28.172
766.90	29.220
767.08	25.506
767.25	21.176
767.43	17.473
767.61	21.619
767.79	20.212
767.97	21.522
768.14	21.651
768.32	28.005
768.50	34.822
768.68	33.714
768.86	37.448
769.03	41.444
769.21	45.252
769.39	43.639
769.57	43.606
769.75	34.943
769.92	35.088
770.10	39.315
770.28	31.536
770.46	30.999
770.64	28.811
770.81	32.774
770.99	34.632
771.17	30.601
771.35	35.203
771.53	33.333
771.70	40.544
771.88	41.108
772.06	41.835
772.24	45.099
772.41	45.004
772.59	47.732
772.77	44.162
772.95	40.486
773.12	38.603
773.30	37.569
773.48	42.923
773.66	41.924
773.84	45.667
774.01	35.482
774.19	43.635
774.37	42.870
774.55	48.099
774.72	40.913
774.90	39.134
775.08	47.373
775.25	44.581
775.43	44.176
775.61	46.953
775.79	48.566
775.96	56.268
776.14	49.767
776.32	47.484
776.50	29.433
776.67	38.326
776.85	35.371
777.03	29.514
777.21	25.841
777.38	37.029
777.56	39.909
777.74	42.726
777.91	44.245
778.09	52.701
778.27	55.487
778.45	70.684
778.62	62.804
778.80	63.832
778.98	59.393
779.15	59.033
779.33	50.630
779.51	38.607
779.68	23.810
779.86	26.031
780.04	26.400
780.22	22.570
780.39	24.768
780.57	29.627
780.75	31.773
780.92	36.519
781.10	38.323
781.28	33.599
781.45	44.641
781.63	56.978
781.81	55.640
781.98	49.342
782.16	54.847
782.34	55.266
782.51	50.577
782.69	42.356
782.87	42.720
783.04	52.246
783.22	60.698
783.40	52.453
783.57	52.959
783.75	49.718
783.93	64.787
784.10	75.377
784.28	77.606
784.46	87.238
784.63	100.000
784.81	94.415
784.99	85.098
785.16	80.708
785.34	81.880
785.52	81.410
785.69	84.407
785.87	72.318
786.04	61.613
786.22	49.634
786.40	46.993
786.57	53.739
786.75	56.162
786.93	56.485
787.10	56.965
787.28	60.613
787.45	56.644
787.63	61.633
787.81	69.373
787.98	72.693
788.16	67.798
788.34	72.829
788.51	71.835
788.69	72.017
788.86	75.730
789.04	63.078
789.22	64.883
789.39	49.414
789.57	45.741
789.74	40.143
789.92	46.480
790.10	57.736
790.27	55.267
790.45	50.787
790.62	49.961
790.80	46.526
790.97	49.277
791.15	48.158
791.33	51.398
791.50	45.105
791.68	53.967
791.85	43.812
792.03	32.179
792.21	20.852
792.38	21.818
792.56	13.402
792.73	22.298
792.91	26.698
793.08	31.139
793.26	42.133
793.44	33.387
793.61	24.593
793.79	13.850
793.96	28.858
794.14	30.617
794.31	12.090
794.49	19.503
794.66	26.757
794.84	33.951
795.01	32.532
795.19	36.173
795.37	53.182
795.54	43.956
795.72	50.840
795.89	51.257
796.07	48.965
796.24	55.611
796.42	53.152
796.59	41.538
796.77	41.506
796.94	40.263
797.12	35.243
797.29	32.227
797.47	35.934
797.64	38.764
797.82	38.494
797.99	39.457
798.17	32.251
798.35	38.989
798.52	44.823
798.70	31.623
798.87	28.512
799.05	33.286
799.22	31.953
799.40	36.330
799.57	24.775
799.75	24.537
799.92	23.678
800.10	36.495
800.27	41.860
800.45	46.667
800.62	59.547
800.79	57.838
800.97	62.952
801.14	66.851
801.32	73.111
801.49	81.919
801.67	87.872
801.84	89.367
802.02	77.151
802.19	76.803
802.37	62.857
802.54	54.464
802.72	40.276
802.89	34.447
803.07	32.931
803.24	24.268
803.42	29.216
803.59	20.569
803.76	27.684
803.94	39.087
804.11	40.442
804.29	44.896
804.46	49.310
804.64	58.090
804.81	62.356
804.99	67.937
805.16	69.987
805.34	72.395
805.51	67.937
805.68	72.790
805.86	75.664
806.03	68.045
806.21	71.314
806.38	65.997
806.56	86.851
806.73	69.242
806.90	60.352
807.08	51.952
807.25	50.980
807.43	59.932
807.60	49.112
807.78	50.837
807.95	53.383
808.12	59.113
808.30	63.229
808.47	52.327
808.65	57.216
808.82	51.146
808.99	54.035
809.17	44.597
809.34	30.898
809.52	34.713
809.69	37.012
809.86	40.728
810.04	41.607
810.21	34.601
810.39	57.301
810.56	64.567
810.73	57.255
810.91	56.690
811.08	62.429
811.25	70.480
811.43	74.110
811.60	64.136
811.78	63.368
811.95	67.197
812.12	73.288
812.30	56.118
812.47	44.796
812.64	63.838
812.82	74.933
812.99	75.263
813.17	71.971
813.34	68.587
813.51	62.860
813.69	65.631
813.86	61.257
814.03	52.232
814.21	61.938
814.38	75.415
814.55	68.996
814.73	64.558
814.90	67.549
815.07	72.248
815.25	65.622
815.42	78.007
815.59	80.533
815.77	64.628
815.94	67.313
816.11	68.724
816.29	57.600
816.46	53.552
816.63	37.213
816.81	33.272
816.98	39.845
817.15	45.417
817.33	39.305
817.50	39.836
817.67	58.451
817.85	49.935
818.02	44.848
818.19	51.020
818.37	38.315
818.54	59.153
818.71	55.504
818.88	57.638
819.06	74.074
819.23	60.602
819.40	59.482
819.58	43.293
819.75	44.347
819.92	55.080
820.09	60.208
820.27	45.386
820.44	26.706
820.61	24.548
820.79	28.292
820.96	18.876
821.13	29.199
821.30	31.424
821.48	36.139
821.65	39.607
821.82	26.969
822.00	17.105
822.17	24.841
822.34	28.771
822.51	29.213
822.69	23.732
822.86	22.386
823.03	21.828
823.20	18.889
823.38	22.151
823.55	21.076
823.72	23.758
823.89	25.514
824.07	25.695
824.24	23.091
824.41	21.502
824.58	26.052
824.76	27.433
824.93	29.117
825.10	31.257
825.27	27.476
825.45	27.143
825.62	28.730
825.79	31.375
825.96	31.541
826.13	34.567
826.31	33.867
826.48	27.980
826.65	28.738
826.82	26.192
827.00	29.825
827.17	32.372
827.34	33.223
827.51	32.831
827.68	28.416
827.86	26.864
828.03	26.137
828.20	31.396
828.37	29.454
828.54	26.544
828.72	28.746
828.89	17.101
829.06	15.526
829.23	13.504
829.40	14.253
829.58	16.561
829.75	21.332
829.92	20.998
830.09	17.514
830.26	21.521
830.44	25.967
830.61	24.627
830.78	33.859
830.95	34.869
831.12	29.348
831.29	28.687
831.47	31.501
831.64	28.923
831.81	42.986
831.98	50.000
832.15	67.757
832.32	80.410
832.50	73.939
832.67	73.056
832.84	68.461
833.01	72.042
833.18	66.271
833.35	69.441
833.53	61.704
833.70	43.561
833.87	32.258
834.04	20.217
834.21	8.129
834.38	6.098
834.55	11.625
834.72	14.740
834.90	32.085
835.07	31.639
835.24	31.244
835.41	32.441
835.58	37.838
835.75	39.683
835.92	42.700
836.10	46.899
836.27	41.257
836.44	43.632
836.61	35.612
836.78	28.763
836.95	31.938
837.12	28.957
837.29	31.970
837.46	31.822
837.64	36.495
837.81	48.571
837.98	50.266
838.15	45.094
838.32	30.816
838.49	29.579
838.66	27.225
838.83	27.730
839.00	18.015
839.17	17.581
839.34	23.004
839.52	17.381
839.69	5.875
839.86	22.045
840.03	22.956
840.20	41.263
840.37	63.483
840.54	77.797
840.71	76.573
840.88	91.304
841.05	88.485
841.22	83.559
841.39	83.692
841.56	90.389
841.74	70.470
841.91	81.579
842.08	66.165
842.25	61.328
842.42	49.386
842.59	64.896
842.76	61.207
842.93	61.359
843.10	78.501
843.27	84.983
843.44	81.805
843.61	94.343
843.78	91.053
843.95	100.800
844.12	110.094
844.29	102.062
844.46	114.571
844.63	130.372
844.80	114.224
844.97	154.063
845.14	146.862
845.31	146.000
845.48	121.429
845.65	131.841
845.82	205.732
845.99	143.110
846.16	203.049
846.33	214.583
846.50	387.143
846.67	-6060.000
846.85	582.353
847.02	219.658
847.19	196.635
847.36	217.925
847.53	602.632
847.70	173.881
847.87	363.636
848.03	0.000
848.20	40.670
848.37	-6.452
848.54	-12.083
848.71	5.000
848.88	55.340
849.05	36.641
849.22	141.414
849.39	106.667
849.56	104.545
849.73	600.000
849.90	255.319
850.07	-114.286
850.24	-258.333
850.41	609.302
850.58	741.026
850.75	132.338
850.92	205.479
851.09	234.483
851.26	-1694.444
851.43	568.116
851.60	367.532
851.77	4038.462
851.94	602.198
852.11	852.542
852.28	-498.947
852.45	-710.959
852.62	-508.654
852.79	-276.331
852.96	-669.565
853.12	-383.750
853.29	-161.062
853.46	-89.394
853.63	-155.708
853.80	-165.714
853.97	-61.613
854.14	-47.687
854.31	-96.698
854.48	-183.810
854.65	-243.243
854.82	932.075
854.99	489.286
855.16	197.414
855.33	182.174
855.49	171.981
855.66	170.139
855.83	182.463
856.00	128.846
856.17	121.939
856.34	258.462
856.51	136.816
856.68	102.597
856.85	7.609
857.02	41.667
857.18	30.387
857.35	120.879
857.52	156.618
857.69	47.778
857.86	148.571
858.03	190.909
858.20	-175.510
858.37	25.000
858.54	36.000
858.70	218.182
858.87	185.185
859.04	-309.302
859.21	596.970
859.38	758.824
859.55	-315.909
859.72	332.836
859.89	98.319
860.05	67.327
860.22	94.595
860.39	101.072
860.56	71.217
860.73	117.361
860.90	113.567
861.07	119.475
861.23	133.724
861.40	117.992
861.57	150.472
861.74	198.007
861.91	242.152
862.08	1154.839
862.24	37600.000
862.41	-319.802
862.58	-163.014
862.75	-402.041
862.92	-303.922
863.09	362.295
863.25	-3871.429
863.42	400.000
863.59	364.151
863.76	372.800
863.93	263.547
864.10	364.583
864.26	510.753
864.43	188.321
864.60	328.205
864.77	265.730
864.94	2010.714
865.10	409.924
865.27	458.140
865.44	253.374
865.61	194.286
865.78	188.166
865.94	129.687
866.11	132.384
866.28	291.200
866.45	271.250
866.62	259.524
866.78	109.864
866.95	173.684
867.12	138.362
867.29	169.686
867.46	188.926
867.62	157.289
867.79	158.402
867.96	138.532
868.13	132.770
868.29	111.752
868.46	142.208
868.63	137.591
868.80	122.404
868.97	131.757
869.13	132.072
869.30	125.672
869.47	194.521
869.64	201.227
869.80	238.931
869.97	187.857
870.14	201.370
870.31	167.532
870.47	-878.571
870.64	5500.000
870.81	-1333.333
870.98	330.769
871.14	-2330.000
871.31	171.795
871.48	208.850
871.65	154.514
871.81	132.808
871.98	145.548
872.15	136.032
872.31	166.667
872.48	203.333
872.65	178.445
872.82	321.277
872.98	127.682
873.15	98.031
873.32	79.399
873.48	127.801
873.65	142.601
873.82	135.632
873.99	164.574
874.15	117.818
874.32	123.101
874.49	152.893
874.65	97.375
874.82	143.462
874.99	177.733
875.16	236.697
875.32	337.324
875.49	283.019
875.66	320.455
875.82	226.230
875.99	376.119
876.16	-38100.000
876.32	6880.000
876.49	-345.679
876.66	7666.667
876.82	-800.000
876.99	-645.455
877.16	-820.000
877.32	1452.381
877.49	-244.737
877.66	204.545
877.82	40.957
877.99	35.060
878.16	59.859
878.32	67.857
878.49	59.152
878.66	77.824
878.82	81.766
878.99	65.756
879.16	92.647
879.32	72.697
879.49	86.400
879.66	116.477
879.82	116.910
879.99	146.047
880.16	684.444
880.32	195.726
880.49	301.299
880.65	-1192.308
880.82	322.951
880.99	131.646
881.15	3900.000
881.32	237.037
881.49	153.712
881.65	202.857
881.82	111.950
881.98	63.636
882.15	66.585
882.32	61.864
882.48	58.014
882.65	69.579
882.82	75.197
882.98	77.762
883.15	79.847
883.31	71.667
883.48	70.974
883.65	76.853
883.81	81.381
883.98	84.038
884.14	81.023
884.31	76.923
884.48	61.331
884.64	65.792
884.81	64.964
884.97	60.183
885.14	63.692
885.30	55.973
885.47	48.936
885.64	49.703
885.80	40.741
885.97	37.515
886.13	33.481
886.30	54.524
886.47	50.290
886.63	48.439
886.80	47.002
886.96	47.346
887.13	49.668
887.29	48.126
887.46	45.199
887.62	53.614
887.79	46.322
887.96	58.056
888.12	85.000
888.29	231.579
888.45	60.577
888.62	-56.436
888.78	131.818
>>>>>End Processed Spectral Data<<<<<
